Time (s),Elbow Flexion Angle Z (deg) (Smoothed),Shoulder Angle Z (deg) (Smoothed)
0.005,-92.22433148859604,64.53336008550167
0.01,-92.43953297222772,64.54194156458
0.015,-92.63627515421325,64.54953286692775
0.02,-92.81521785751875,64.55616976517487
0.025,-92.97702090511031,64.56188803195136
0.03,-93.12234411995406,64.56672343988714
0.035,-93.25184732501614,64.57071176161223
0.04,-93.36619034326263,64.57388876975656
0.045,-93.46603299765967,64.57629023695011
0.05,-93.55203511117335,64.57795193582285
0.055,-93.62485650676982,64.57890963900476
0.06,-93.68515700741516,64.57919911912579
0.065,-93.73359643607552,64.5788561488159
0.07,-93.77083461571699,64.57791650070509
0.075,-93.7975313693057,64.5764159474233
0.08,-93.81434651980776,64.57439026160051
0.085,-93.82193989018928,64.57187521586668
0.09,-93.82097130341641,64.5689065828518
0.095,-93.81210058245523,64.5655201351858
0.1,-93.79598755027186,64.56175164549869
0.105,-93.77329202983242,64.55763688642041
0.11,-93.74467384410303,64.55321163058093
0.115,-93.71079281604982,64.54851165061024
0.12,-93.67230876863889,64.54357271913827
0.125,-93.62988152483634,64.53843060879501
0.13,-93.58417090760653,64.53312109220923
0.135,-93.51060059117808,64.5284336202393
0.14,-93.45413738702847,64.52281966522335
0.145,-93.40816657002244,64.51761441708635
0.15,-93.36905405331765,64.51274704976205
0.155,-93.33453808466604,64.50818546739328
0.16,-93.30401747491271,64.50361707626323
0.165,-93.27634850845821,64.49901720084138
0.17,-93.25059155586582,64.49428250922887
0.175,-93.22738155563934,64.48957360075983
0.18,-93.20570082900906,64.48468705972832
0.185,-93.18608347187752,64.48020187999606
0.19,-93.16741824503208,64.47529404063388
0.195,-93.15082588959932,64.47035937393701
0.2,-93.13537669482709,64.4654750232156
0.205,-93.1211324605296,64.46083989897723
0.21,-93.10925753471022,64.45639382545347
0.215,-93.09773213662645,64.45219727287018
0.22,-93.08674437472925,64.44846550091613
0.225,-93.07707997462957,64.44536752361199
0.23,-93.06927204240007,64.44274658995549
0.235,-93.06263830890668,64.44050910552777
0.24,-93.05609732043581,64.43833901560501
0.245,-93.04997532899773,64.43649972139676
0.25,-93.04458323404656,64.43530131373181
0.255,-93.03940780991465,64.43463562481473
0.26,-93.0343833155886,64.43484880291616
0.265,-93.02898445491226,64.43564273482852
0.27,-93.02377662461033,64.43693832249757
0.275,-93.0187124328959,64.43884769983342
0.28,-93.01313825001522,64.44081363790676
0.285,-93.0074700355596,64.4429624227037
0.29,-93.00084291829762,64.44543929647207
0.295,-92.99396857686291,64.44852230174965
0.3,-92.98694068948156,64.45230403633028
0.305,-92.97852942535327,64.45644533058383
0.31,-92.97112407075862,64.46105353009004
0.315,-92.96368363043152,64.46609729552075
0.32,-92.95609896713225,64.4715477904357
0.325,-92.94898223289137,64.47728585018788
0.33,-92.94142893836602,64.48317551699802
0.335,-92.93454235429844,64.48934025685621
0.34,-92.92749461369274,64.49576269451052
0.345,-92.92074315612862,64.50205636820642
0.35,-92.91512991687064,64.5082410156503
0.355,-92.91109131576982,64.51481281116097
0.36,-92.90830505334031,64.52141972864494
0.365,-92.90751438764006,64.52853086366498
0.37,-92.90827301637457,64.53588846406363
0.375,-92.9106396452903,64.54317590885286
0.38,-92.91424841785593,64.55013567691104
0.385,-92.91990649391654,64.55705052662452
0.39,-92.9272624340284,64.56371494257957
0.395,-92.93630624023017,64.56998114113446
0.4,-92.94712784434351,64.57576917710358
0.405,-92.95972905161888,64.58098879929206
0.41,-92.97475275544001,64.58571241024588
0.415,-92.99169881537343,64.58981254388425
0.42,-93.01081086094636,64.59329743595427
0.425,-93.03126402409842,64.59597064712554
0.43,-93.0530761851893,64.59809468391006
0.435,-93.07657665858618,64.59985175881549
0.44,-93.10091347935223,64.60080703300063
0.445,-93.12648441187618,64.6011597952376
0.45,-93.15295274637978,64.60101186889726
0.455,-93.17952063693224,64.60004743255669
0.46,-93.20677583410543,64.59857306847142
0.465,-93.23358805408778,64.59653622052471
0.47,-93.26049262044262,64.59416382703901
0.475,-93.28700110987612,64.59115951890065
0.48,-93.31262334820543,64.58768324310732
0.485,-93.33692646039368,64.58406917936861
0.49,-93.36015958005665,64.57982749779032
0.495,-93.38196186096901,64.57539407234466
0.5,-93.4023956374985,64.57049954925242
0.505,-93.42114960701082,64.56526882375468
0.51,-93.43849961720358,64.55972560646777
0.515,-93.45403779247368,64.55350609753211
0.52,-93.46821639901066,64.54681586445776
0.525,-93.48062015900521,64.5402745860596
0.53,-93.49123454438201,64.53394412330847
0.535,-93.50031019954973,64.52778103241174
0.54,-93.50813491132124,64.52138433939488
0.545,-93.51500977145396,64.5149061088574
0.55,-93.52079566241413,64.50832556569674
0.555,-93.5253649346513,64.5015428050453
0.56,-93.52994254682827,64.49468905297844
0.565,-93.53330354934248,64.48786041359817
0.57,-93.53566833450184,64.48149063851832
0.575,-93.5377552764484,64.4756011982139
0.58,-93.5396111214279,64.47000146322556
0.585,-93.54159914154161,64.46472891118589
0.59,-93.54384303608057,64.45984748238796
0.595,-93.54630023556415,64.45507820788569
0.6,-93.5492825522644,64.4506945027055
0.605,-93.55268574599474,64.44683344356487
0.61,-93.5565860993436,64.44356360053332
0.615,-93.56107336972346,64.44076875127287
0.62,-93.56536821445381,64.43806501166381
0.625,-93.57014362499538,64.43589670434088
0.63,-93.57515575890557,64.43391150648816
0.635,-93.58114594441372,64.4323269519116
0.64,-93.58695213028427,64.43077105710086
0.645,-93.59293825681037,64.42936484178452
0.65,-93.59957645699612,64.42840697184411
0.655,-93.60584978821538,64.42771482706166
0.66,-93.61239730458043,64.42720940225024
0.665,-93.61916006930895,64.4270123037882
0.67,-93.62592433803533,64.42714537588498
0.675,-93.63254360234482,64.42762803007872
0.68,-93.63891263901608,64.42844898865083
0.685,-93.6449555980865,64.42959270198521
0.69,-93.65063558177809,64.4310377267876
0.695,-93.65591956556028,64.43275714512096
0.7,-93.66080445536527,64.43472750685056
0.705,-93.6652999275164,64.43692389861482
0.71,-93.66943970644684,64.43932298126674
0.715,-93.6727020113688,64.44154260798537
0.72,-93.67589349022447,64.44402197558145
0.725,-93.6788626039077,64.44684451289825
0.73,-93.68136251557047,64.45039212666073
0.735,-93.68470937733404,64.45437427348173
0.74,-93.68799350154976,64.45816189947554
0.745,-93.69115143264673,64.46252417042164
0.75,-93.6947505923106,64.46680257536853
0.755,-93.69867356451833,64.47156709325115
0.76,-93.70270413825727,64.47656948288626
0.765,-93.7069826360715,64.48192091326973
0.77,-93.7123580873841,64.48747687150208
0.775,-93.71778985027794,64.49326148950023
0.78,-93.72435771817982,64.49955063308218
0.785,-93.73168335182949,64.50590704432592
0.79,-93.73948552854924,64.51219234637128
0.795,-93.74770854152803,64.51855237264593
0.8,-93.75678970757936,64.52503565879059
0.805,-93.76676149176473,64.53189104622858
0.81,-93.77735893451539,64.53925798319203
0.815,-93.78876576366216,64.54702089741433
0.82,-93.80101795963488,64.55510569661703
0.825,-93.8131318331088,64.56297186799125
0.83,-93.82517091666676,64.5706440055255
0.835,-93.83712778771707,64.5780709914142
0.84,-93.84886177942694,64.58556015764673
0.845,-93.86001363564114,64.59302387369918
0.85,-93.87091340007521,64.60032817051224
0.855,-93.88108338127523,64.60753643797017
0.86,-93.89067232100207,64.61460883145587
0.865,-93.89945705678319,64.62118171645893
0.87,-93.90689362386284,64.62698979365206
0.875,-93.91374519014974,64.63277714104386
0.88,-93.91954888445764,64.63807120432956
0.885,-93.92366181113773,64.64320750413248
0.89,-93.9256324605296,64.64811498561563
0.895,-93.92628302113118,64.65267832566865
0.9,-93.92533237445743,64.65692267548405
0.905,-93.92171514416907,64.66042816598213
0.91,-93.91673983102496,64.66352814559662
0.915,-93.90933801218421,64.6667146141463
0.92,-93.89929493080072,64.66921554961483
0.925,-93.88712914222111,64.67140580533976
0.93,-93.87230355613765,64.67323595551305
0.935,-93.85485159346578,64.67466521098882
0.94,-93.83481388253236,64.67575885070886
0.945,-93.81214808262747,64.67636327663017
0.95,-93.78699930915583,64.6765936714296
0.955,-93.75908597023536,64.67641687014304
0.96,-93.72850727309611,64.67585413939037
0.965,-93.69527212394212,64.67489847335037
0.97,-93.65981789847835,64.67368443226223
0.975,-93.62160324355978,64.67151720537147
0.98,-93.58113540057354,64.66821223583649
0.985,-93.53951424720653,64.66388523182735
0.99,-93.49434601236541,64.65878725678827
0.995,-93.44676788149043,64.65306684182984
1.0,-93.3975005685275,64.64673677999377
1.005,-93.34657107522075,64.63969354232135
1.01,-93.2948059593631,64.63187696210436
1.015,-93.24172183741243,64.62347656118926
1.02,-93.18834695915925,64.61439419465776
1.025,-93.13333045821923,64.60488022152134
1.03,-93.07811182586065,64.59438789100422
1.035,-93.02274609164243,64.58357335839872
1.04,-92.96713144804913,64.57288981177254
1.045,-92.91205490271403,64.56260895603401
1.05,-92.85737283517003,64.55275841355287
1.055,-92.80305774309545,64.5433578269031
1.06,-92.7490749779139,64.53423604158522
1.065,-92.69562666198378,64.5252122041257
1.07,-92.64247936759432,64.51636400597852
1.075,-92.58941058687448,64.50775448141397
1.08,-92.53774137579383,64.49958792271502
1.085,-92.48680417676326,64.49141189607795
1.09,-92.43692133230472,64.48283606650084
1.095,-92.3886940904646,64.47539642800393
1.1,-92.34177032322185,64.46877546943183
1.105,-92.29650654601286,64.46366716799804
1.11,-92.2531540940887,64.45966061745331
1.115,-92.21218605177742,64.45436730843157
1.12,-92.1726088337204,64.45041522118157
1.125,-92.13565960044218,64.44733349566117
1.13,-92.10031358127982,64.4453055561835
1.135,-92.0658427302979,64.44411340687094
1.14,-92.03382038777599,64.4444189200196
1.145,-92.00419299191196,64.44596663117953
1.15,-91.97674972705887,64.4475861129345
1.155,-91.95062163808743,64.44985175202032
1.16,-91.92618581621151,64.4532297945581
1.165,-91.90342353394011,64.45598007429263
1.17,-91.8820605517661,64.457051342045
1.175,-91.86276454506155,64.45839503272883
1.18,-91.84422926226918,64.45937601531054
1.185,-91.82662797345176,64.46015275770561
1.19,-91.81036370925554,64.46112607759963
1.195,-91.79461709891326,64.4619016399
1.2,-91.77913436091241,64.4631886928344
1.205,-91.76319393191062,64.46481111463329
1.21,-91.74844990146825,64.46617946499231
1.215,-91.73364538041456,64.46766454279701
1.22,-91.71938693061954,64.46921161294583
1.225,-91.70512484993822,64.47122542752827
1.23,-91.69086762327396,64.47424840653119
1.235,-91.67603303585412,64.47824497949999
1.24,-91.66057006274032,64.48274548234264
1.245,-91.64501187795697,64.48775364560795
1.25,-91.62917757366921,64.49332132777516
1.255,-91.61263321026348,64.49947090307697
1.26,-91.59498177534988,64.50652819316282
1.265,-91.57538948560381,64.51451261636606
1.27,-91.5545902126871,64.52352923508903
1.275,-91.53135485514787,64.53371207954756
1.28,-91.5063034700655,64.54512220208714
1.285,-91.47885031144357,64.55857640490034
1.29,-91.44800407710079,64.57333149335082
1.295,-91.41429188656421,64.5891165666254
1.3,-91.37702492921522,64.605757385217
1.305,-91.33617720673001,64.6231986500248
1.31,-91.29117406962612,64.64137002423487
1.315,-91.2425268250679,64.66030477926896
1.32,-91.18987076943812,64.67973828625665
1.325,-91.13348199053031,64.69959289678012
1.33,-91.07318826247307,64.71982257808659
1.335,-91.00914378128437,64.74074396475447
1.34,-90.9420374731007,64.76277191329238
1.345,-90.87128892160464,64.78652250107466
1.35,-90.79674191714248,64.8105270357187
1.355,-90.72004329429711,64.83449873609698
1.36,-90.64120180298362,64.85800011778173
1.365,-90.56008257944512,64.88097149878696
1.37,-90.47682458719163,64.9057944551393
1.375,-90.39167645473111,64.9298571428559
1.38,-90.30423360438341,64.95393635416305
1.385,-90.21512249880911,64.97717779338025
1.39,-90.12529324559841,64.99956505243482
1.395,-90.03386367980983,65.01995154816518
1.4,-89.94077287367607,65.03810244399521
1.405,-89.84610458447358,65.0551655847232
1.41,-89.7509380642806,65.07007640037023
1.415,-89.65588759201623,65.08256732428697
1.42,-89.56074690253288,65.09371880223664
1.425,-89.46531318715994,65.10484822306157
1.43,-89.36927821015027,65.11460378037881
1.435,-89.27363917868864,65.1240395207127
1.44,-89.1786848988635,65.13330724138588
1.445,-89.08354222519027,65.14130343835524
1.45,-88.98936415094168,65.14873804389556
1.455,-88.89625475322035,65.15511740922659
1.46,-88.80464688441243,65.16066809440633
1.465,-88.71287059276371,65.1663807538097
1.47,-88.62225952116526,65.17120564678575
1.475,-88.53154014360292,65.1751535640659
1.48,-88.4414734829764,65.17779073138566
1.485,-88.3519680785505,65.17971669346858
1.49,-88.26326167296938,65.18046583387948
1.495,-88.17442309678418,65.18056020521291
1.5,-88.08589360800755,65.17996716346791
1.505,-87.99740769666187,65.17944320143027
1.51,-87.90851451221829,65.17898149901346
1.515,-87.81936916351277,65.17856137851241
1.52,-87.72976459262783,65.17772282044768
1.525,-87.63954001222963,65.17696674669743
1.53,-87.54878639606618,65.17657777752486
1.535,-87.45720795487838,65.17554327617714
1.54,-87.36469711431576,65.17493010940099
1.545,-87.27101801173131,65.17396606265022
1.55,-87.17683775849795,65.17302206618372
1.555,-87.08201514643426,65.1717264671894
1.56,-86.98638937235106,65.17052966318478
1.565,-86.89065232734436,65.16913691816224
1.57,-86.79416334911157,65.16783109243573
1.575,-86.69737744682612,65.16682656005673
1.58,-86.60020689256669,65.16637490769769
1.585,-86.50297202201469,65.16609022174782
1.59,-86.40574859906062,65.16599802713414
1.595,-86.30864025006065,65.16710128428606
1.6,-86.2123076241801,65.1681399465434
1.605,-86.11676111803047,65.16872156787119
1.61,-86.02066684635955,65.16984748465298
1.615,-85.9247805703397,65.17068635756064
1.62,-85.82973906543585,65.17094983578212
1.625,-85.73476899363357,65.17040270221172
1.63,-85.63981456657972,65.16975651317004
1.635,-85.54523892953246,65.1681407778193
1.64,-85.45123078438759,65.1660926295034
1.645,-85.35760351310172,65.16415963441857
1.65,-85.26457734716365,65.16189563749904
1.655,-85.1730408480357,65.15947864504166
1.66,-85.08226710457605,65.15596474665213
1.665,-84.99212860313774,65.15206513397688
1.67,-84.9027735916992,65.14697484427609
1.675,-84.81389611089557,65.14161489727842
1.68,-84.7261030827409,65.13436029355013
1.685,-84.6394392013393,65.1261415887097
1.69,-84.55363499739357,65.11640495820846
1.695,-84.46865948492443,65.10482294276076
1.7,-84.38490016761261,65.0920749643241
1.705,-84.30184463521095,65.07785937620206
1.71,-84.21966549865067,65.06221590522877
1.715,-84.13865858569683,65.04496526308512
1.72,-84.05912283177261,65.0256838388173
1.725,-83.98072789870504,65.00506229359544
1.73,-83.9039728193148,64.98323631112697
1.735,-83.82879536342678,64.96074333053852
1.74,-83.75519280391242,64.93699646877495
1.745,-83.68320744297557,64.91300192529718
1.75,-83.61288585924774,64.88862454868615
1.755,-83.54410940677998,64.86414738725554
1.76,-83.47704944392692,64.83911998912649
1.765,-83.41177470837232,64.81369874289214
1.77,-83.34807211035198,64.78786327210005
1.775,-83.28643315137217,64.76253274366226
1.78,-83.22573345262472,64.73711285419704
1.785,-83.16635458334119,64.7104942875251
1.79,-83.10858480599627,64.68386217807753
1.795,-83.05254508822236,64.6584349634181
1.8,-82.99870820403476,64.63320046433543
1.805,-82.94610853246799,64.60693468934619
1.81,-82.89491554734943,64.58023067566525
1.815,-82.84529532718588,64.55487760085042
1.82,-82.79715240435638,64.52900754716858
1.825,-82.7509956374987,64.50260003170958
1.83,-82.70624280957507,64.47567743550127
1.835,-82.66400887675667,64.4488501325046
1.84,-82.6233369136318,64.42333035855728
1.845,-82.58430698090399,64.39688313211954
1.85,-82.54680411560693,64.3689580488787
1.855,-82.5120446397411,64.34151006817697
1.86,-82.47969351514031,64.31457078982413
1.865,-82.45022891118552,64.28720886769679
1.87,-82.42354919024056,64.25799466578961
1.875,-82.39778669731885,64.2283048879917
1.88,-82.37422401866249,64.1977391107374
1.885,-82.35451325058168,64.16482296088122
1.89,-82.33823977439876,64.13228922059267
1.895,-82.32480544066524,64.09915061269669
1.9,-82.31328006523205,64.06459537701751
1.905,-82.30532719427237,64.02923583093492
1.91,-82.30010176447777,63.992526476249644
1.915,-82.29788128836282,63.95494299077999
1.92,-82.2988610999101,63.916066250649976
1.925,-82.30190721193979,63.876022143195684
1.93,-82.30770036467258,63.83294957077048
1.935,-82.31507191102698,63.78879651407612
1.94,-82.32630891526263,63.74334377448971
1.945,-82.34091742961178,63.69667564610628
1.95,-82.3585358920911,63.648834603274054
1.955,-82.37764118099912,63.60013126684514
1.96,-82.4000057962792,63.55082843552393
1.965,-82.42526589503568,63.5011387324729
1.97,-82.45308036874971,63.451600593443715
1.975,-82.48408067679743,63.402248929759374
1.98,-82.5186165960708,63.35326087793486
1.985,-82.5565759315031,63.30483390337145
1.99,-82.59795971822534,63.2571951776925
1.995,-82.64266806043014,63.21057042514998
2.0,-82.69053753652247,63.16517281705014
2.005,-82.74136423474891,63.12119506217461
2.01,-82.79490014496204,63.07879967383059
2.015,-82.85087145801559,63.038089075629046
2.02,-82.90901100138011,62.9990755192631
2.025,-82.96930644635053,62.9618999048664
2.03,-83.03086030940518,62.92625560261719
2.035,-83.09470986205643,62.89229534757179
2.04,-83.16021522571134,62.86090955853919
2.045,-83.22716538992796,62.83223878230417
2.05,-83.29540457541347,62.80382395524126
2.055,-83.36474798070012,62.77701322793148
2.06,-83.43569923893926,62.75286301614865
2.065,-83.50830161498402,62.731418503249145
2.07,-83.58276980678905,62.71023930100221
2.075,-83.6590728034594,62.691295533306466
2.08,-83.73637704364603,62.67456905252547
2.085,-83.81482668916462,62.6602220910994
2.09,-83.89297035493281,62.64750052549203
2.095,-83.97154419805497,62.63532022922257
2.1,-84.05059254343085,62.62536170921078
2.105,-84.12974108360164,62.61656337402766
2.11,-84.2086332374443,62.60810779405982
2.115,-84.28738952410991,62.60052224059315
2.12,-84.3656377743534,62.59278988425439
2.125,-84.44299346077892,62.58700745203622
2.13,-84.5219089786842,62.58156254501681
2.135,-84.60095296609047,62.57665528777429
2.14,-84.67902370834965,62.57457062674006
2.145,-84.75592093365485,62.57269639855822
2.15,-84.8313440440311,62.57214752542407
2.155,-84.90728637568071,62.572163310606065
2.16,-84.98175993114064,62.57280514167811
2.165,-85.05485085279231,62.57422976511239
2.17,-85.12658368026294,62.57628642324735
2.175,-85.19686651339617,62.578046857232266
2.18,-85.26677977303966,62.57908537905609
2.185,-85.33569089899947,62.581299762167816
2.19,-85.40540451199183,62.583595762077216
2.195,-85.47345121520142,62.586103610499606
2.2,-85.54031401390583,62.58860472943774
2.205,-85.60621789168333,62.59190607714664
2.21,-85.6729567532657,62.59582406849412
2.215,-85.73919762168853,62.600218695779006
2.22,-85.8055618428487,62.605442950008985
2.225,-85.87260208838087,62.61086755532282
2.23,-85.93994485945156,62.61694991732422
2.235,-86.17370750866218,62.688596815328694
2.24,-86.14505830935984,62.645479682437816
2.245,-86.12927665858629,62.60844182427568
2.25,-86.14236628689046,62.58009508709025
2.255,-86.17846888944092,62.55973388751608
2.26,-86.2305886294124,62.54784668961805
2.265,-86.29366231398055,62.5438782146809
2.27,-86.36408694874011,62.54737565743159
2.275,-86.43982037645083,62.55815439307678
2.28,-86.5189818433017,62.575707223265454
2.285,-86.60072240367678,62.59985888015464
2.29,-86.68415110874372,62.63132349769977
2.295,-86.7688549253647,62.66901511925404
2.3,-86.85432881831812,62.70994017984432
2.305,-86.9407051597981,62.75702589866014
