Time (s),Elbow Flexion Angle Z (deg) (Smoothed),Shoulder Angle Z (deg) (Smoothed)
0.005,-136.06788451578007,-27.429148305617964
0.01,-136.12197962377974,-27.449178898216886
0.015,-136.17343380324544,-27.463219005073373
0.02,-136.22230903882593,-27.47149192989465
0.025,-136.26866731516986,-27.47422097638795
0.03,-136.312570616926,-27.471629448260497
0.035,-136.35408092874303,-27.463940649219516
0.04,-136.3932602352697,-27.451377882972235
0.045,-136.43017052115476,-27.434164453225883
0.05,-136.46487377104688,-27.412523663687686
0.055,-136.49743196959483,-27.38667881806487
0.06,-136.52790710144725,-27.356853220064664
0.065,-136.55636115125296,-27.323270173394295
0.07,-136.58285610366065,-27.286152981760992
0.075,-136.607453943319,-27.245724948871977
0.08,-136.63021665487676,-27.202209378434482
0.085,-136.65120622298267,-27.15582957415573
0.09,-136.67048463228542,-27.106808839742953
0.095,-136.68811386743377,-27.055370478903374
0.1,-136.7041559130764,-27.00173779534422
0.105,-136.71867275386205,-26.946134092772724
0.11,-136.73172637443946,-26.888782674896106
0.115,-136.7433787594573,-26.829906845421593
0.12,-136.75369189356437,-26.76972990805642
0.125,-136.7627277614093,-26.708475166507807
0.13,-136.7705483476383,-26.646365924482488
0.135,-136.76972835171543,-26.5837482547731
0.14,-136.77307934494286,-26.520500129107738
0.145,-136.7774084350695,-26.456896319281924
0.15,-136.78182563591213,-26.393829137692308
0.155,-136.78641819746505,-26.33140575097913
0.16,-136.79124573602763,-26.270010283358125
0.165,-136.7958093954537,-26.210042184420438
0.17,-136.80031069786145,-26.151803089537204
0.175,-136.80459247094802,-26.09554061473596
0.18,-136.80871689052717,-26.041422356111756
0.185,-136.81260300346293,-25.989586119730415
0.19,-136.81580454823174,-25.940162429499605
0.195,-136.81841962445094,-25.89299788670135
0.2,-136.82050861853915,-25.84793201884478
0.205,-136.82097843665505,-25.80656212824703
0.21,-136.82002810935433,-25.768100643275684
0.215,-136.81796552583035,-25.73189509162106
0.22,-136.81473462592322,-25.698326245214574
0.225,-136.8094162042149,-25.666838091462505
0.23,-136.80266370698962,-25.63679868400141
0.235,-136.79469553104,-25.608308729529053
0.24,-136.7843676866947,-25.58247178871499
0.245,-136.77231262315985,-25.55822674579216
0.25,-136.7582904935533,-25.535028406078922
0.255,-136.74234501347448,-25.513240596615514
0.26,-136.72442252372386,-25.49157523386664
0.265,-136.70521287005107,-25.4705126435475
0.27,-136.6838605177894,-25.45026871050258
0.275,-136.66081727785192,-25.43106571836233
0.28,-136.63633540963295,-25.412853801897633
0.285,-136.61004301342916,-25.395660909646395
0.29,-136.58206858592231,-25.379727633694504
0.295,-136.55220344741412,-25.36509730231667
0.3,-136.52036879657263,-25.35167225078662
0.305,-136.48603809825553,-25.339669503272518
0.31,-136.4495615982216,-25.32869953113272
0.315,-136.4106745566125,-25.318289005413
0.32,-136.36945289813778,-25.308587308885336
0.325,-136.32677820561926,-25.298806047701618
0.33,-136.2823763392123,-25.28827843212708
0.335,-136.2376742395045,-25.277074017531056
0.34,-136.1913093614778,-25.264543443792128
0.345,-136.14342064372656,-25.249915049037998
0.35,-136.09466658361197,-25.23356249971638
0.355,-136.0973671657316,-25.04105992661167
0.36,-136.10478642777605,-24.795562594848786
0.365,-136.1032342068877,-24.560086230718227
0.37,-136.08774366350053,-24.36305685066433
0.375,-136.0574254909485,-24.21399214931209
0.38,-136.01284980406996,-24.115775802395973
0.385,-135.95481587351662,-24.067790502615683
0.39,-135.88431436725372,-24.067793245599674
0.395,-135.80294837934915,-24.116110858682635
0.4,-135.7117258375022,-24.209488296450193
0.405,-135.61146315884585,-24.34512892704205
0.41,-135.50284407347584,-24.5204342771066
0.415,-135.38655061269532,-24.73241091983916
0.42,-135.2634104736208,-24.97851067068289
0.425,-135.13393084780822,-25.255771630161018
0.43,-134.9993550250263,-25.56073318308406
0.435,-134.85942173095395,-25.89116841604517
0.44,-134.71398475616402,-26.245014836122625
0.445,-134.5647767106817,-26.6210157580008
0.45,-134.41229167138297,-27.01602729620099
0.455,-134.25697614894756,-27.427271428570904
0.46,-134.09929810414474,-27.851934795804578
0.465,-133.93976314299047,-28.287068130647945
0.47,-133.7788281501254,-28.730024587192815
0.475,-133.61693055335084,-29.178079306439
0.48,-133.45563140727734,-29.628117782961674
0.485,-133.29468214455338,-30.078437054066335
0.49,-133.13440698543315,-30.526266173638685
0.495,-132.9758482185301,-30.969306029581055
0.5,-132.81999191374408,-31.405161659380134
0.505,-132.66757213073652,-31.83095555278654
0.51,-132.51874826156623,-32.244878921379254
0.515,-132.37449040748123,-32.645212790776064
0.52,-132.2346201046431,-33.02940524813636
0.525,-132.10037291897638,-33.39543697025916
0.53,-131.97194335092274,-33.74045526059416
0.535,-131.84953228838452,-34.06201661419219
0.54,-131.73369399080136,-34.356985179731616
0.545,-131.62478377765947,-34.622663598268836
0.55,-131.52374601915986,-34.85702242632835
0.555,-131.4308166889372,-35.05642316473692
0.56,-131.3474240413121,-35.2176532197778
0.565,-131.2732211375091,-35.33845593105099
0.57,-131.20962400054108,-35.415218775056516
0.575,-131.1576918616478,-35.44374748691861
0.58,-131.1180971256402,-35.41941927110399
0.585,-131.091081292892,-35.33927676051485
0.59,-131.0765120161247,-35.20295825046932
0.595,-131.07660624249448,-35.00510629912275
0.6,-131.0920718929056,-34.7428267661775
0.605,-131.12236229585923,-34.41255637726723
0.61,-131.10392110806336,-34.222841740469114
0.615,-131.06967634600758,-34.10383451493739
0.62,-131.02927663140474,-34.01655191510501
0.625,-130.98715524700194,-33.94221461641195
0.63,-130.9439450497155,-33.874754938956066
0.635,-130.9019355817774,-33.80745978391291
0.64,-130.86118322045547,-33.73955720627809
0.645,-130.8217265849711,-33.67325370450002
0.65,-130.7820594124417,-33.60710725271176
0.655,-130.74356243629276,-33.53827197444951
0.66,-130.70504906113138,-33.470446884413505
0.665,-130.66715891639424,-33.40041229019845
0.67,-130.62985093659853,-33.331559971912654
0.675,-130.5928031891977,-33.263040118688345
0.68,-130.55652386237261,-33.194562692246066
0.685,-130.51980771931164,-33.12737983646225
0.69,-130.4825424811409,-33.062451446238235
0.695,-130.44599766698883,-32.99932603003402
0.7,-130.41099771228997,-32.936277186345606
0.705,-130.37703565199416,-32.87385663548375
0.71,-130.3442788738112,-32.812340496952864
0.715,-130.31235683707195,-32.75168169607403
0.72,-130.2813258057915,-32.69235202156271
0.725,-130.25119397947606,-32.63414122630122
0.73,-130.22214321954948,-32.5769981720984
0.735,-130.19422091100338,-32.5210681125274
0.74,-130.16762506511787,-32.465928016488995
0.745,-130.1417899839156,-32.412013810051704
0.75,-130.1176882149061,-32.35883223855518
0.755,-130.09392092685883,-32.306675326733846
0.76,-130.07072844231783,-32.25621668893911
0.765,-130.0490605449702,-32.20715316315144
0.77,-130.02846483498814,-32.15930257310409
0.775,-130.00871840811547,-32.11255333982588
0.78,-129.98968064961585,-32.066683243107946
0.785,-129.97116050193412,-32.021498751953004
0.79,-129.95322102425627,-31.976719069513994
0.795,-129.93636211465468,-31.932710423791544
0.8,-129.91991544542094,-31.88890588235233
0.805,-129.90438456136923,-31.844009100998278
0.81,-129.8890666153229,-31.798224073024823
0.815,-129.8738897823255,-31.750642891118105
0.82,-129.85983811637612,-31.70022616140735
0.825,-129.84623724206415,-31.64671767197384
0.83,-129.83201343178533,-31.590610050057155
0.835,-129.81624528301637,-31.533324430903832
0.84,-129.80149446193326,-31.47537281478569
0.845,-129.78718439828515,-31.41419637817331
0.85,-129.77194269405626,-31.35217635959984
0.855,-129.7557340823097,-31.290210235791825
0.86,-129.7386553942307,-31.22909306439497
0.865,-129.72045853812975,-31.16953123060485
0.87,-129.70120179392262,-31.11258205621812
0.875,-129.67862628824867,-31.058588128835844
0.88,-129.65350522095383,-31.00746444540021
0.885,-129.6273586944187,-30.958215694579124
0.89,-129.59860873405717,-30.914821880449697
0.895,-129.5672051009058,-30.87823474597327
0.9,-129.53349398627128,-30.847340003170487
0.905,-129.49830317787246,-30.821224086615185
0.91,-129.46020424018417,-30.803322886134996
0.915,-129.4190070216741,-30.793138628280907
0.92,-129.3746561416995,-30.792077446827193
0.925,-129.32790896735804,-30.79463283653025
0.93,-129.27848420122518,-30.802627894175952
0.935,-129.22621420643483,-30.817264411424357
0.94,-129.17167940383456,-30.838383431107697
0.945,-129.11573075267594,-30.865245880993317
0.95,-129.0574537815101,-30.901201540238148
0.955,-128.99737744909038,-30.942012276608164
0.96,-128.9348150127951,-30.990334770888893
0.965,-128.87072730978937,-31.04194925592819
0.97,-128.8054882330266,-31.098357704590672
0.975,-128.738845387209,-31.16023786948682
0.98,-128.67053074814584,-31.22757358490506
0.985,-128.60190584157945,-31.29619938843402
0.99,-128.5324615053544,-31.367105064666774
0.995,-128.46251446238628,-31.440450705564643
1.0,-128.39223993748195,-31.515274826156272
1.005,-128.3212678429838,-31.5921261591423
1.01,-128.25055428208776,-31.669509123648847
1.015,-128.17939994110608,-31.74867189064245
1.02,-128.10803066886885,-31.827616256313235
1.025,-128.0366275566806,-31.904930879521004
1.03,-127.96516661758798,-31.980504838161067
1.035,-127.89370511223113,-32.05424738499112
1.04,-127.82240773290204,-32.12580184828587
1.045,-127.75116942625863,-32.19459682212446
1.05,-127.67954073704709,-32.26022444675922
1.055,-127.60807128134027,-32.32240551994321
1.06,-127.53564209834633,-32.38093427710645
1.065,-127.463199619468,-32.435591512830925
1.07,-127.39042750684935,-32.48658094860524
1.075,-127.31640542254395,-32.53541699019168
1.08,-127.24196842510344,-32.580543473237725
1.085,-127.16846259258175,-32.62085743504887
1.09,-127.09510181430821,-32.66175700921815
1.095,-127.02152979682197,-32.69812466646973
1.1,-126.94839706448376,-32.72976740356457
1.105,-126.87442818636644,-32.761889057509165
1.11,-126.80029885161369,-32.7922022990322
1.115,-126.72661947042724,-32.81764032933865
1.12,-126.65290529796583,-32.840617696889446
1.125,-126.57889614713568,-32.86073949353263
1.13,-126.50529851185514,-32.88367706403253
1.135,-126.43246363450801,-32.90642992593201
1.14,-126.36008666107708,-32.92917226211176
1.145,-126.28813060318225,-32.951360003623456
1.15,-126.21677591791193,-32.972285408502394
1.155,-126.14593460780297,-32.99171307390817
1.16,-126.07546202631754,-33.00942241726816
1.165,-126.00519484019783,-33.025380658677925
1.17,-125.93623223628833,-33.03642060522259
1.175,-125.86825839769627,-33.04350768986776
1.18,-125.80051487009658,-33.04927708441804
1.185,-125.73341106253581,-33.05269131124085
1.19,-125.66727604249007,-33.05179573036698
1.195,-125.60120711680659,-33.048161890415905
1.2,-125.5355920405874,-33.041149595686704
1.205,-125.47088110715744,-33.02815714059145
1.21,-125.40579290583918,-33.012120858908965
1.215,-125.34142315794001,-32.98980366259648
1.22,-125.27656424833845,-32.96531867539405
1.225,-125.2113471652788,-32.936932693831615
1.23,-125.14618824888205,-32.90330193662307
1.235,-125.08177530634656,-32.86376005118966
1.24,-125.0168405173366,-32.822153946861135
1.245,-124.9518235067588,-32.778308052276884
1.25,-124.886692858273,-32.73189919816921
1.255,-124.82170753584212,-32.684027828489256
1.26,-124.7571789621485,-32.63392643094912
1.265,-124.69284565901593,-32.582841219506044
1.27,-124.62975598541064,-32.52913775396889
1.275,-124.56668662936636,-32.47438924097879
1.28,-124.50371310788229,-32.41975466261915
1.285,-124.44089743821819,-32.365099732722655
1.29,-124.37827726562087,-32.310055049943884
1.295,-124.31566830505548,-32.2549902511942
1.3,-124.25304969534747,-32.19978220797692
1.305,-124.19017352601179,-32.145384527395244
1.31,-124.1273186708622,-32.09150716890468
1.315,-124.06460463430417,-32.038321758136604
1.32,-124.00208901673639,-31.985761170127812
1.325,-123.94003920813371,-31.934227237309408
1.33,-123.87903748669044,-31.882374230446285
1.335,-123.81951969466795,-31.831657865409706
1.34,-123.7608634850143,-31.78374669414875
1.345,-123.70515776121533,-31.733257031868742
1.35,-123.65078885138725,-31.686025760492267
1.355,-123.59765208724764,-31.643247600171545
1.36,-123.5471372624498,-31.599984010962274
1.365,-123.498760968536,-31.558127900971105
1.37,-123.45172164714704,-31.521437518402987
1.375,-123.40625234999423,-31.48844551405407
1.38,-123.36196230944972,-31.45965019366177
1.385,-123.32077612176711,-31.428884781081642
1.39,-123.28135004190119,-31.3987059684245
1.395,-123.24433153638579,-31.368015914289646
1.4,-123.20906727218951,-31.337023461459452
1.405,-123.17579537475132,-31.30555229110452
1.41,-123.14376341479752,-31.273691358807074
1.415,-123.11343670298072,-31.240876966635113
1.42,-123.08408709143801,-31.207164454460425
1.425,-123.05582103784674,-31.17225824140917
1.43,-123.02871136378846,-31.13585444743876
1.435,-123.00272425196258,-31.097668200864657
1.44,-122.97781693809362,-31.057521085414702
1.445,-122.95325749167354,-31.017024394662926
1.45,-122.92951459828981,-30.975074860132136
1.455,-122.90703533488632,-30.93184886180828
1.46,-122.8857558268567,-30.886649545855487
1.465,-122.86574262157458,-30.83956859498457
1.47,-122.84620926861075,-30.79200676572457
1.475,-122.82765917687593,-30.743462286800927
1.48,-122.80980735690267,-30.694545788125982
1.485,-122.79276561190277,-30.64461297651077
1.49,-122.7766305465559,-30.59393906543691
1.495,-122.76136082357236,-30.542321289269843
1.5,-122.7468987972524,-30.489695290945985
1.505,-122.73315896169552,-30.43594652653456
1.51,-122.71908056807395,-30.380632444675403
1.515,-122.70489931821551,-30.324997141497523
1.52,-122.69164907472188,-30.267759863189976
1.525,-122.67787510475654,-30.210186817367877
1.53,-122.66442297673554,-30.15023321932489
1.535,-122.65052293369943,-30.08815899114305
1.54,-122.63660377358256,-30.02545502729336
1.545,-122.62224834084341,-29.96421313732983
1.55,-122.60779895354132,-29.900764764773264
1.555,-122.59302883417284,-29.83684323087668
1.56,-122.57779680173721,-29.773314301569112
1.565,-122.56345498199046,-29.707184174046404
1.57,-122.54960900586414,-29.638952252598582
1.575,-122.53577883983546,-29.569747958050577
1.58,-122.52243933044682,-29.49965844526433
1.585,-122.51063571088577,-29.428568314117534
1.59,-122.49937846836615,-29.358482445807955
1.595,-122.48908303698603,-29.287006629821178
1.6,-122.47891617023933,-29.21660192756292
1.605,-122.46844417766872,-29.145044907018853
1.61,-122.45898403134603,-29.074449933180265
1.615,-122.45099920722771,-29.003139627171066
1.62,-122.44340823121469,-28.93231828127422
1.625,-122.43678368705737,-28.86264428865831
1.63,-122.43034963419093,-28.794846662438008
1.635,-122.42342012276376,-28.72959059548293
1.64,-122.41527117261764,-28.668208580035238
1.645,-122.40743643117392,-28.609933230650203
1.65,-122.3999891503748,-28.555511569910436
1.655,-122.39315572266406,-28.50518580488745
1.66,-122.38631280436468,-28.459157879000113
1.665,-122.3800797073523,-28.418179850052688
1.67,-122.37421619968507,-28.38145600806306
1.675,-122.37052648983887,-28.34742898140334
1.68,-122.55078934969977,-28.307946184510996
1.685,-122.43852035153448,-28.234456302520467
1.69,-122.34921262089507,-28.1908655960492
1.695,-122.29144145960038,-28.167827291670843
1.7,-122.25642614781528,-28.155782398241783
1.705,-122.23687680354924,-28.150491911481033
1.71,-122.22742875263079,-28.149171417245608
1.715,-122.22489361027195,-28.14992233799126
1.72,-122.22681283834055,-28.15291925751379
1.725,-122.23130476341248,-28.15670262746554
1.73,-122.23718779587072,-28.16119966250597
1.735,-122.24423563387386,-28.16551281795683
1.74,-122.25134519467932,-28.170415083013797
1.745,-122.25914102244438,-28.174793497020907
1.75,-122.26744617091884,-28.178958855239667
1.755,-122.27578751500366,-28.182258128156384
1.76,-122.28403080477239,-28.18514740764176
1.765,-122.29314881424035,-28.18724673944996
1.77,-122.3029939975967,-28.187556984302613
1.775,-122.31221592787823,-28.18670161951519
1.78,-122.32238780040082,-28.183197392918892
1.785,-122.33285136695955,-28.178777745814767
1.79,-122.34321986907736,-28.173917212167343
1.795,-122.35382393711969,-28.1665115404647
1.8,-122.36497827810135,-28.154153355681355
1.805,-122.37705078257483,-28.13950212235784
1.81,-122.39003103127807,-28.121857387482756
1.815,-122.40364900677018,-28.099442718973844
1.82,-122.4176882602074,-28.075261718271676
1.825,-122.43155851774438,-28.050319658428876
1.83,-122.44543423406863,-28.02453389657696
1.835,-122.4609356044281,-27.998113767015703
1.84,-122.47677630297169,-27.97042664839467
1.845,-122.49272164714709,-27.94185278262195
1.85,-122.50899673831563,-27.91457290085792
1.855,-122.52592948877431,-27.886594407573817
1.86,-122.54438143559076,-27.85983305624083
1.865,-122.56284543251029,-27.832212713764218
1.87,-122.58059711431507,-27.805317216697468
1.875,-122.59838225101126,-27.777073607555696
1.88,-122.6150563999161,-27.749261836054643
1.885,-122.63062295861506,-27.720632594169206
1.89,-122.64641479987986,-27.689929647330096
1.895,-122.66325450179838,-27.65606311807689
1.9,-122.68009646877383,-27.618720002717538
1.905,-122.69698534507907,-27.577186445898583
1.91,-122.71446798341742,-27.53040467054694
1.915,-122.73269299417646,-27.47593599628478
1.92,-122.75115264218661,-27.41343436770882
1.925,-122.7677942648734,-27.34739650954669
1.93,-122.78207261772398,-27.277479415161768
1.935,-122.57177458152837,-27.212640999795624
1.94,-122.62852157466526,-27.191094323766723
1.945,-122.6903482525062,-27.153621952931594
1.95,-122.74343212756565,-27.102773512423315
1.955,-122.79119268839375,-27.042518272214025
1.96,-122.83525418469038,-26.974554927630912
1.965,-122.87619164646753,-26.905250456408467
1.97,-122.91508541529583,-26.83455716324214
1.975,-122.95260112346591,-26.76212925774032
1.98,-122.99044322634478,-26.688357145121692
1.985,-123.02943040612236,-26.613552266188982
1.99,-123.07060039864768,-26.53712807085047
1.995,-123.11341577385436,-26.46053901787079
2.0,-123.15642440372139,-26.385422165846965
2.005,-123.20056606038405,-26.310851792792086
2.01,-123.24491798228489,-26.238746999931543
2.015,-123.29088328161218,-26.168011343404782
2.02,-123.33725273505392,-26.101691256879604
2.025,-123.38320414958199,-26.039026331286735
2.03,-123.4293961131599,-25.980953686379713
2.035,-123.47461156537848,-25.92725165915373
2.04,-123.51918940406114,-25.87843289089171
2.045,-123.56354019343348,-25.833847502774198
2.05,-123.6071992117578,-25.79479657070326
2.055,-123.64983834288195,-25.761365285736442
2.06,-123.69122539581633,-25.733602974019302
2.065,-123.73101542503558,-25.71252327119478
2.07,-123.77068191804786,-25.69680131826266
2.075,-123.80887813993284,-25.687229520486945
2.08,-123.84687641848954,-25.681947822147233
2.085,-123.88540594350712,-25.68101360846176
2.09,-123.92234750503738,-25.684161063670256
2.095,-123.958791705359,-25.6894426396969
2.1,-123.99496240005196,-25.697763738702534
2.105,-124.03119123875729,-25.70601429703908
2.11,-124.06663636775227,-25.714612548415097
2.115,-124.10179331354946,-25.72216382930482
2.12,-124.13667759178904,-25.730331328002407
2.125,-124.17183915830246,-25.735621350426467
2.13,-124.2062039004257,-25.741481967881
2.135,-124.24124872590306,-25.742438770979604
2.14,-124.27678062923043,-25.74100975559986
2.145,-124.3135754150693,-25.734292876395344
2.15,-124.3505795148224,-25.724481512604548
2.155,-124.38920344741432,-25.708721837413716
2.16,-124.42809248227351,-25.689857953747048
2.165,-124.46765190604303,-25.66622408435023
2.17,-124.50695850415399,-25.64117423271146
2.175,-124.54647348750584,-25.613512580125896
