Time (s),Elbow Flexion Angle Z (deg) (Smoothed),Shoulder Angle Z (deg) (Smoothed)
0.005,-122.32877146317318,-43.74817266980971
0.01,-122.36804408713327,-43.41865360419411
0.015,-122.40227903130929,-43.11633845886555
0.02,-122.43170374164498,-42.84016936812782
0.025,-122.456545664084,-42.58908846628474
0.03,-122.4770322445701,-42.362037887640135
0.035,-122.49339092904695,-42.15795976649779
0.04,-122.50584916345828,-41.97579623716153
0.045,-122.51463439374778,-41.81448943393516
0.05,-122.51997406585917,-41.67298149112249
0.055,-122.52209562573616,-41.55021454302734
0.06,-122.52122651932243,-41.44513072395351
0.065,-122.51759419256169,-41.35667216820481
0.07,-122.51142609139767,-41.28378101008506
0.075,-122.50294966177405,-41.22539938389806
0.08,-122.49239234963456,-41.18046942394762
0.085,-122.47998160092288,-41.147933264537556
0.09,-122.46594486158274,-41.126733039971676
0.095,-122.45050957755782,-41.115810884553795
0.1,-122.43390319479185,-41.11410893258771
0.105,-122.41635315922852,-41.12056931837725
0.11,-122.39808691681154,-41.134134176226205
0.115,-122.37933191348462,-41.1537456404384
0.12,-122.36031559519145,-41.178345845317644
0.125,-122.34126540787577,-41.20687692516774
0.13,-122.32240879747891,-41.23828101429172
0.135,-122.28405259462042,-41.25933815488381
0.14,-122.26057242519414,-41.28910722100082
0.145,-122.24552084984701,-41.328882690433865
0.15,-122.23919585947351,-41.37815357539162
0.155,-122.24006969580051,-41.43689786631555
0.16,-122.23784531925743,-41.434592448299284
0.165,-122.23911889283784,-41.42526906158611
0.17,-122.2413757276472,-41.408342195745426
0.175,-122.24525103626122,-41.38472970848638
0.18,-122.25028825114717,-41.353857688735076
0.185,-122.25689073364961,-41.31588006976296
0.19,-122.26534992864836,-41.269910672947624
0.195,-122.27538483317623,-41.21614169969796
0.2,-122.28682821807737,-41.15438587283891
0.205,-122.29969061586665,-41.08425534440113
0.21,-122.31335337153496,-41.00608047067805
0.215,-122.32831778749,-40.92076811932242
0.22,-122.34424059434859,-40.82752176266654
0.225,-122.36170078597243,-40.72574527848798
0.23,-122.3797904595777,-40.616036852476064
0.235,-122.39866030940445,-40.49904057396466
0.24,-122.41749047543311,-40.376011932319315
0.245,-122.43759104396241,-40.24610673401359
0.25,-122.45761052345233,-40.110980380075794
0.255,-122.47843808466547,-39.971135081201524
0.26,-122.49946941040332,-39.826604244715995
0.265,-122.52013730775094,-39.67870211329739
0.27,-122.54042832226995,-39.528758266324644
0.275,-122.56019024213224,-39.37725564565373
0.28,-122.57936252236507,-39.22518811977546
0.285,-122.59633651951111,-39.07357655439459
0.29,-122.61305180185046,-38.92293131441181
0.295,-122.62885252213857,-38.7748916555294
0.3,-122.64295626174763,-38.63011631520459
0.305,-122.6562039457269,-38.48921225622251
0.31,-122.66828478561001,-38.35248546965883
0.315,-122.67867489637132,-38.22083756596905
0.32,-122.68839054111976,-38.095024886180155
0.325,-122.6968148768918,-37.974578112753804
0.33,-122.704191306709,-37.860300015854676
0.335,-122.71021454619348,-37.751682593036485
0.34,-122.71624702711038,-37.64905480758269
0.345,-122.72090869555132,-37.55316729937186
0.35,-122.72523366327428,-37.46349421051368
0.355,-122.7283559310493,-37.38018773471582
0.36,-122.73045425717223,-37.30369770776163
0.365,-122.73171265487092,-37.23269705089511
0.37,-122.73264128292593,-37.166874925818675
0.375,-122.73207023941416,-37.10783330313186
0.38,-122.73088953316942,-37.05378845500393
0.385,-122.72880318919785,-37.00545879861308
0.39,-122.72623923531442,-36.96190886996237
0.395,-122.72351865274177,-36.92268420122696
0.4,-122.7210582799134,-36.88696102969419
0.405,-122.7186954857391,-36.85439181181837
0.41,-122.71614675303847,-36.82401321207657
0.415,-122.7135071915535,-36.796214999206526
0.42,-122.71059756732647,-36.770395619379116
0.425,-122.70831357448405,-36.74567208543725
0.43,-122.70647867448632,-36.72131464132753
0.435,-122.70534977009436,-36.69726027316516
0.44,-122.70469709392955,-36.672987184306976
0.445,-122.70404319463398,-36.64880829237284
0.45,-122.70339371219953,-36.62449453215178
0.455,-122.70289777797676,-36.599683347300484
0.46,-122.70281410677245,-36.5743515232501
0.465,-122.70300761058907,-36.54869490815124
0.47,-122.70357752157231,-36.52144323993679
0.475,-122.70434591949751,-36.49354564542728
0.48,-122.70466420530241,-36.4662037690541
0.485,-122.7042999388411,-36.439858821263655
0.49,-122.70336000815186,-36.41536780674465
0.495,-122.70225801263668,-36.39169795918298
0.5,-122.70030736822798,-36.369286806042474
0.505,-122.69855314955936,-36.34569329090056
0.51,-122.69534046071024,-36.323039337243635
0.515,-122.69081340460477,-36.30397754195949
0.52,-122.68566619855255,-36.285355025028196
0.525,-122.67838145824132,-36.26979748125596
0.53,-122.669788443677,-36.25662167659446
0.535,-122.65922156787009,-36.24498027135313
0.54,-122.64698441640572,-36.2340030057299
0.545,-122.63293066660391,-36.22333330766199
0.55,-122.6171869804502,-36.20986729031166
0.555,-122.59985900020149,-36.19565518811228
0.56,-122.58004219800893,-36.18004717207568
0.565,-122.55836650886536,-36.16025384719856
0.57,-122.53519234863523,-36.135219271103985
0.575,-122.50906389725466,-36.107470950643716
0.58,-122.48113420462289,-36.073911411356306
0.585,-122.45160853020218,-36.033957509795684
0.59,-122.4192243991913,-35.990044075742816
0.595,-122.38450379396805,-35.94111894267072
0.6,-122.3481533896554,-35.886475693673006
0.605,-122.30957847289625,-35.82640202043012
0.61,-122.27029074270983,-35.75856211918661
0.615,-122.22978355115399,-35.68645781784343
0.62,-122.1877203560646,-35.60827886475276
0.625,-122.14334401684968,-35.52809517089787
0.63,-122.0991226301818,-35.441546911594145
0.635,-122.0529875648349,-35.353125835239084
0.64,-122.00656322906288,-35.25975363201817
0.645,-121.95946954630674,-35.16303910394279
0.65,-121.91209597046131,-35.06345871933612
0.655,-121.86397562798471,-34.96405466941427
0.66,-121.81610206346456,-34.86140518471473
0.665,-121.76847543545486,-34.759253029513026
0.67,-121.72093732587142,-34.6558359351281
0.675,-121.67501499467477,-34.55117193594353
0.68,-121.63096011234448,-34.444867682166546
0.685,-121.58687619198388,-34.33815067158873
0.69,-121.54424956397419,-34.23113581734515
0.695,-121.50357303675952,-34.1238340143598
0.7,-121.4640610432829,-34.0164764909731
0.705,-121.42593827719534,-33.91032345919435
0.71,-121.39119069514364,-33.803498946747865
0.715,-121.35674198735866,-33.69903658519947
0.72,-121.32357138326797,-33.59725541235298
0.725,-121.29146290968984,-33.49987150105261
0.73,-121.26065539423084,-33.40742153163088
0.735,-121.23144028177074,-33.320385977031684
0.74,-121.20421520306004,-33.239155242473714
0.745,-121.17868970984388,-33.16303541643009
0.75,-121.15450300119815,-33.09336408299105
0.755,-121.13218641418598,-33.02954224331179
0.76,-121.11091109651176,-32.97450931844373
0.765,-121.09090350857093,-32.927317198576915
0.77,-121.07226831864588,-32.885274400325535
0.775,-121.05439960134765,-32.85127558042022
0.78,-121.03763156583156,-32.82207568234778
0.785,-121.0218860449817,-32.7972173729863
0.79,-121.00771240571467,-32.7759414007106
0.795,-120.99459079480616,-32.759036775464274
0.8,-120.98290364447435,-32.74473382182999
0.805,-120.97119832838564,-32.73634270991353
0.81,-120.96038046161628,-32.72912243991873
0.815,-120.95047099594325,-32.72293156809832
0.82,-120.9406028675598,-32.71936182925938
0.825,-120.93076148949913,-32.719152275249094
0.83,-120.9220845545742,-32.71870396837919
0.835,-120.91368212190307,-32.72009994110789
0.84,-120.90530009739511,-32.72379257514264
0.845,-120.89836687127448,-32.726736666741544
0.85,-120.89244236562318,-32.729490076784806
0.855,-120.88697981834014,-32.73279265215457
0.86,-120.88206441821782,-32.73610777593994
0.865,-120.8753615710412,-32.742343092708154
0.87,-120.86862800969212,-32.7473804502927
0.875,-120.86160988923639,-32.753696654510236
0.88,-120.85423280255266,-32.75937543092646
0.885,-120.84451564021603,-32.767228279235596
0.89,-120.83388069944726,-32.77301368094344
0.895,-120.82267598359866,-32.779503646741084
0.9,-120.81104249246637,-32.785668137443025
0.905,-120.79774379940424,-32.79169291716624
0.91,-120.78303363609363,-32.79491976488646
0.915,-120.76662366078276,-32.79750775781948
0.92,-120.74851609322742,-32.79681730276954
0.925,-120.72948431447819,-32.79330388230701
0.93,-120.7075531495594,-32.78701737751641
0.935,-120.68238021246003,-32.778440993000345
0.94,-120.65576429816976,-32.766479256607674
0.945,-120.62621146571604,-32.75198973929131
0.95,-120.59354739631469,-32.73342688169545
0.955,-120.55819538381158,-32.71211753380534
0.96,-120.52049138145594,-32.68759572810193
0.965,-120.4774303381707,-32.66369095109679
0.97,-120.43221234908827,-32.63802010691006
0.975,-120.38501875466936,-32.61065902964897
0.98,-120.3358509818999,-32.58141511472451
0.985,-120.28462603909259,-32.55058423520289
0.99,-120.23116630048015,-32.51853901107551
0.995,-120.17554291150194,-32.48541497202592
1.0,-120.1177124057147,-32.451750082673954
1.005,-120.05798466556203,-32.41680491290794
1.01,-119.99585612357922,-32.38213508573178
1.015,-119.93123681170351,-32.34794533058444
1.02,-119.86447058823299,-32.313881453712945
1.025,-119.79552134815961,-32.280150347685634
1.03,-119.72476656322675,-32.24636207162049
1.035,-119.65220861174429,-32.213549002241784
1.04,-119.57879954245618,-32.180874042446554
1.045,-119.50310813381728,-32.14975585630417
1.05,-119.42689587532897,-32.11809840313422
1.055,-119.34974162494956,-32.087369960813895
1.06,-119.27201279756956,-32.05709154680679
1.065,-119.19383976986794,-32.02754085030177
1.07,-119.11543591021086,-31.998290756301905
1.075,-119.03734981539559,-31.96945635235165
1.08,-118.95957958277424,-31.93975359351227
1.085,-118.88221807968243,-31.90919164193918
1.09,-118.80518897370041,-31.87766404448511
1.095,-118.72846911594597,-31.8449927201063
1.1,-118.65183920360369,-31.811149434867673
1.105,-118.57534992864845,-31.775791653264474
1.11,-118.49873680037825,-31.73830576230431
1.115,-118.42252653514008,-31.698510294683306
1.12,-118.34738136763912,-31.655504958209097
1.125,-118.27174219121383,-31.611377913428917
1.13,-118.196150467732,-31.56597867901817
1.135,-118.12103884572471,-31.51650937507018
1.14,-118.04732992819542,-31.464376674442754
1.145,-117.9749532945231,-31.409262361547786
1.15,-117.90227416249292,-31.35277808557325
1.155,-117.82986309995471,-31.293425821648814
1.16,-117.75807642301979,-31.232782436747684
1.165,-117.68725524926725,-31.169228147862317
1.17,-117.61665140773066,-31.104394914946514
1.175,-117.54645364560692,-31.038355441798764
1.18,-117.47667197444791,-30.97152335273673
1.185,-117.40752836983626,-30.90468759881252
1.19,-117.33890094905662,-30.837684935105525
1.195,-117.27062123717188,-30.770742284082857
1.2,-117.20263426124941,-30.703608226686313
1.205,-117.13445285283697,-30.638537636185962
1.21,-117.0671048041836,-30.57401394142504
1.215,-116.99948440508057,-30.510819375296705
1.22,-116.9324081406125,-30.44845559355759
1.225,-116.86621966522235,-30.38681109877855
1.23,-116.80020331151104,-30.324765919952306
1.235,-116.73320190717573,-30.26673007316076
1.24,-116.66583827493038,-30.21137948537848
1.245,-116.5979974404834,-30.158963233594744
1.25,-116.52968422840611,-30.10933094973781
1.255,-116.4609324786496,-30.062561668440384
1.26,-116.39173181725297,-30.01841197082549
1.265,-116.32225853359988,-29.976915551880552
1.27,-116.25262964053321,-29.937555704545396
1.275,-116.18320879294892,-29.90013292486748
1.28,-116.11393574033164,-29.864956363676974
1.285,-116.04454166572066,-29.832114935785057
1.29,-115.975515277807,-29.800204727173316
1.295,-115.9061000249134,-29.770156848399164
1.3,-115.83721631293804,-29.740467106842168
1.305,-115.76768107997694,-29.71180959251568
1.31,-115.69751591202296,-29.683318079684135
1.315,-115.62706740809311,-29.65348777775204
1.32,-115.55609526829377,-29.622385965706474
1.325,-115.48456230038964,-29.5897447620552
1.33,-115.41246836847726,-29.555257915241004
1.335,-115.3393058732905,-29.519757172302313
1.34,-115.26561491766297,-29.482031031279867
1.345,-115.19140519603849,-29.441418308454892
1.35,-115.11710034202139,-29.395268624430347
1.355,-115.04150395252219,-29.349113361570485
1.36,-114.96538567124743,-29.3020744637472
1.365,-114.88899064531253,-29.2526880223782
1.37,-114.81255881220193,-29.201498509591953
1.375,-114.73634195564799,-29.148221937076162
1.38,-114.6603383542074,-29.095895136922138
1.385,-114.58529078801111,-29.04084268046786
1.39,-114.5106020521394,-28.989177945139758
1.395,-114.43609927744464,-28.939791564927305
1.4,-114.3628267910916,-28.89294628417349
1.405,-114.29081949760817,-28.84762278873759
1.41,-114.21937894402825,-28.80618288522901
1.415,-114.1488966907496,-28.767285408502474
1.42,-114.07924276880344,-28.73270558562993
1.425,-114.01122183967709,-28.701144709958903
1.43,-113.94489433509034,-28.671582873903727
1.435,-113.87899431470481,-28.647599938842912
1.44,-113.81412435162527,-28.62571322340202
1.445,-113.7497702099686,-28.607379614486756
1.45,-113.6857993159506,-28.59333566558644
1.455,-113.62239636231635,-28.58477996104047
1.46,-113.56092831094483,-28.57720454143867
1.465,-113.50021502185562,-28.572744322634165
1.47,-113.44150399782338,-28.56973172665238
1.475,-113.38346938775292,-28.568387295294926
1.48,-113.32659156492568,-28.56960261387519
1.485,-113.2695474189654,-28.576396346462563
1.49,-113.21541908083772,-28.580412061427797
1.495,-113.16310799791398,-28.58328932705103
1.5,-113.11292502661226,-28.582329556727803
1.505,-113.06376126299361,-28.580143221816485
1.51,-113.01783080024244,-28.57204270311843
1.515,-112.97315690049388,-28.56033558630945
1.52,-112.93013436317706,-28.543107775940022
1.525,-112.88899202699731,-28.517975222541306
1.53,-112.84878013091813,-28.48726156877791
1.535,-112.81014442003001,-28.448814392171414
1.54,-112.7722921017442,-28.403840945434236
1.545,-112.73663455570691,-28.349085313370093
1.55,-112.70283227252949,-28.285813658292966
1.555,-112.66947876508878,-28.215059709166145
1.56,-112.63633074361606,-28.13870445989663
1.565,-112.60397605834572,-28.056949473373717
1.57,-112.57241833336893,-27.970237042741086
1.575,-112.54150635348265,-27.878978407211406
1.58,-112.51009411311479,-27.786456644544074
1.585,-112.48023989218112,-27.691026367527613
1.59,-112.45225651769927,-27.591583700649544
1.595,-112.42548340845556,-27.489957249314294
1.6,-112.39985014382896,-27.387847065618175
1.605,-112.37462042175146,-27.289506278737385
1.61,-112.35081243063048,-27.188210201816062
1.615,-112.32937828716176,-27.088238370064484
1.62,-112.30977775260833,-26.991459969647714
1.625,-112.29182325760277,-26.8977953724881
1.63,-112.2754322408187,-26.80962880925904
1.635,-112.26172581485208,-26.72330848716794
1.64,-112.24979847787955,-26.643295875330757
1.645,-112.24051670479298,-26.565906702303053
1.65,-112.23471935943974,-26.49088877890728
1.655,-112.22971709438278,-26.422840825386253
1.66,-112.22574934879398,-26.360780626967262
1.665,-112.22419995922682,-26.303573698158
1.67,-112.22507397675838,-26.25180272486303
1.675,-112.22859235769566,-26.205005787220045
1.68,-112.2339705542573,-26.164597544677747
1.685,-112.2407312509888,-26.132143321479038
1.69,-112.24999424675316,-26.103902271851638
1.695,-112.26237133343687,-26.082716365036084
1.7,-112.27723785362988,-26.067401873201607
1.705,-112.29420870234674,-26.056640938639106
1.71,-112.3132410473602,-26.04728074701529
1.715,-112.3329104396454,-26.042234490021926
1.72,-112.35353312645597,-26.039586729030738
1.725,-112.37437479897405,-26.039284352985977
1.73,-112.39661369453226,-26.039826075335295
1.735,-112.41934664431597,-26.039699809734714
1.74,-112.44425434324458,-26.0358146164121
1.745,-112.46941169675199,-26.030807798590633
1.75,-112.4952175134183,-26.022859013793695
1.755,-112.52134938503488,-26.013218326575412
1.76,-112.54898226460179,-25.99791326190804
1.765,-112.57578409476783,-25.98014811886969
1.77,-112.60364859906011,-25.956694307911345
1.775,-112.63224213458751,-25.927941579650234
1.78,-112.66122736641611,-25.896046275113324
1.785,-112.69124313121259,-25.858274221386175
1.79,-112.71950032843108,-25.817264703616804
1.795,-112.75051387347175,-25.76999578699355
1.8,-112.78007386350549,-25.721511318489167
1.805,-112.80944388321151,-25.67095716550722
1.81,-112.84069858886733,-25.61763938934015
1.815,-112.8748102335252,-25.5599889419914
1.82,-112.91181313279814,-25.498049115494766
1.825,-112.95207739699438,-25.431755604882976
1.83,-112.99612808896927,-25.361156239098925
1.835,-113.04581104894572,-25.28287567102264
1.84,-113.09953833608698,-25.19845463317354
1.845,-113.15776287118405,-25.10815903644428
1.85,-113.22092523046737,-25.011391483385328
1.855,-113.28936580669786,-24.907461865500444
1.86,-113.36448694194442,-24.794691583047836
1.865,-113.4463388298694,-24.675927882850782
1.87,-113.53342993046056,-24.548728374368142
1.875,-113.62618693514925,-24.413640399555582
1.88,-113.72489641894276,-24.271018732020643
1.885,-113.82879759450731,-24.121170006115193
1.89,-113.9380224014112,-23.964721341366275
1.895,-114.0521874787629,-23.802457102085658
1.9,-114.17105750979418,-23.63545737615756
1.905,-114.29347246823039,-23.464287625993347
1.91,-114.42142415456532,-23.287814625472386
1.915,-114.55432886361871,-23.109929454800348
1.92,-114.69071066162094,-22.93197038211467
1.925,-114.82988835533993,-22.754413139595023
1.93,-114.97145210536824,-22.578217980021765
1.935,-115.11454109945645,-22.405651099684725
1.94,-115.2587121792091,-22.237493211623843
1.945,-115.4031790980521,-22.076198926362576
1.95,-115.5456129470634,-21.92227855217516
1.955,-115.68596110896966,-21.776769412670312
1.96,-115.82439430111447,-21.639217545130844
1.965,-115.96055548256815,-21.511327194273527
1.97,-116.09385075539427,-21.39551262542712
1.975,-116.22412106729261,-21.29174897959143
1.98,-116.35124818228957,-21.20036202178944
1.985,-116.47485351876378,-21.122037615800632
1.99,-116.59446734920158,-21.057349015832344
1.995,-116.70981872748875,-21.00658770753544
2.0,-116.82068678792048,-20.96987135155909
2.005,-116.92684950961292,-20.94724917665139
2.01,-117.02804380619946,-20.939164767038488
2.015,-117.12311073863282,-20.950355283244967
2.02,-117.21360597068792,-20.97239110059078
2.025,-117.29837520668418,-21.01046877618932
2.03,-117.37910718249341,-21.056462615234366
2.035,-117.45361432874812,-21.117602002309955
2.04,-117.5237888966885,-21.185925690275702
2.045,-117.59267118167796,-21.259244179935717
2.05,-117.65523042424292,-21.34563510385245
2.055,-117.71630138847766,-21.43527174114888
2.06,-117.77408382975608,-21.533235762984027
2.065,-117.83025654034972,-21.631611157670196
2.07,-117.88356997893273,-21.735705818930928
2.075,-117.93621452354301,-21.83572327345991
2.08,-117.98602600285172,-21.9389181997323
2.085,-118.03414238147863,-22.043382309904672
2.09,-118.0821261183696,-22.142875109288575
2.095,-118.12938999750615,-22.239053641078648
2.1,-118.1751014065981,-22.334228514801715
2.105,-118.22101771274322,-22.423415042242876
2.11,-118.26613468028494,-22.510049751975828
2.115,-118.31128453645381,-22.589211336609686
2.12,-118.35597535617794,-22.664290047339257
2.125,-118.40034650841241,-22.73543763845117
2.13,-118.44447727015107,-22.801785197852286
2.135,-118.48805225486194,-22.864655589027624
2.14,-118.53159362612743,-22.924822480689954
2.145,-118.57513044462841,-22.982030000679078
2.15,-118.61821087680127,-23.03882292690617
2.155,-118.6610442818614,-23.094914768170977
2.16,-118.70347638677885,-23.15138741760811
2.165,-118.74542324854242,-23.208329708486723
2.17,-118.78745557090532,-23.262775245191968
2.175,-118.82928788873812,-23.31684712450973
