Time (s),Elbow Flexion Angle Z (deg) (Smoothed),Shoulder Angle Z (deg) (Smoothed)
0.005,-125.64191337576788,-30.509909694198566
0.01,-125.73727042444126,-30.510029271116903
0.015,-125.8271769533615,-30.524505492366895
0.02,-125.91178482829345,-30.552642936687313
0.025,-125.99124591500197,-30.593746182816925
0.03,-126.06571207925191,-30.647119809494498
0.035,-126.13533518680812,-30.712068395458797
0.04,-126.20026710343544,-30.787896519448598
0.045,-126.26065969489873,-30.873908760202667
0.05,-126.31666482696286,-30.96940969645977
0.055,-126.36843436539264,-31.073703906958677
0.06,-126.41612017595297,-31.18609597043816
0.065,-126.45987412440867,-31.30589046563698
0.07,-126.49984807652459,-31.432391971293914
0.075,-126.53619389806559,-31.564905066147723
0.08,-126.56906345479652,-31.70273432893718
0.085,-126.59860861248224,-31.845184338401054
0.09,-126.62498123688759,-31.99155967327811
0.095,-126.64833319377743,-32.14116491230712
0.1,-126.6688163489166,-32.29330463422685
0.105,-126.68658256806995,-32.44728341777607
0.11,-126.70178371700236,-32.602405841693546
0.115,-126.71457166147864,-32.75797648471805
0.12,-126.72509826726368,-32.913299925588355
0.125,-126.7335154001223,-33.06768074304322
0.13,-126.73997492581694,-33.220423515820784
0.135,-126.71704620715967,-33.35685203515305
0.14,-126.70675340324566,-33.49227898253577
0.145,-126.70368882647155,-33.624041294252905
0.15,-126.70355733991468,-33.75120208611682
0.155,-126.70568241636032,-33.87208103014726
0.16,-126.70951011347692,-33.98606242949945
0.165,-126.71445375885963,-34.092676047021925
0.17,-126.72031647375687,-34.191604591269815
0.175,-126.72678699404044,-34.282027674465354
0.18,-126.73335237490981,-34.363462406848875
0.185,-126.74003071417005,-34.43670234206824
0.19,-126.74631957688493,-34.50235091621488
0.195,-126.75232564723758,-34.56027563931167
0.2,-126.75803286597416,-34.611063960677946
0.205,-126.76363738702783,-34.65583170173664
0.21,-126.76823789893074,-34.694529891956115
0.215,-126.77210677478294,-34.72836159822352
0.22,-126.77505884617754,-34.756314539399995
0.225,-126.77758023964059,-34.78069503952458
0.23,-126.7795899340844,-34.80069918004871
0.235,-126.78104842691552,-34.81838091009922
0.24,-126.78177822827001,-34.83244935785568
0.245,-126.78206231171471,-34.84304256041973
0.25,-126.78203232236048,-34.85103600307981
0.255,-126.78180221522328,-34.855532822939836
0.26,-126.7820057079411,-34.85939871344698
0.265,-126.56060787333557,-34.857464067135616
0.27,-126.59615094339381,-34.90846346010035
0.275,-126.63258689890806,-34.945314827062234
0.28,-126.65682550000889,-34.97344091825343
0.285,-126.6729991619265,-34.99766138530817
0.29,-126.68346207161866,-35.01941345443771
0.295,-126.6908752180093,-35.03946596978347
0.3,-126.69663398944242,-35.05748227366351
0.305,-126.70045964800772,-35.075135443610726
0.31,-126.70357403338451,-35.09174579945118
0.315,-126.70661145212559,-35.1069748737224
0.32,-126.7090617227999,-35.12271943192304
0.325,-126.71133230650506,-35.13864127160231
0.33,-126.712992661213,-35.157187621463
0.335,-126.7143034043782,-35.17758635756122
0.34,-126.71527176153236,-35.198258225553694
0.345,-126.71548782531639,-35.222603764523996
0.35,-126.71540361049837,-35.248881913519455
0.355,-126.71510369430547,-35.27655132619017
0.36,-126.71476343744801,-35.3053419873603
0.365,-126.71444100658887,-35.33499750390654
0.37,-126.71509216516554,-35.363937432330744
0.375,-126.7163022718497,-35.39207273550862
0.38,-126.71824190808155,-35.4194553670518
0.385,-126.72120514620698,-35.444769168043905
0.39,-126.7242588280571,-35.46943163151985
0.395,-126.72838673582396,-35.49152022695803
0.4,-126.73322381027641,-35.511670123897936
0.405,-126.73781385761608,-35.530963913111734
0.41,-126.74253890235096,-35.5488903372663
0.415,-126.74780767401056,-35.56329981426465
0.42,-126.75279664318315,-35.576125312010916
0.425,-126.75747915014819,-35.586283215927196
0.43,-126.76184239733385,-35.593664033159754
0.435,-126.76621624498614,-35.59791108971822
0.44,-126.76971983510141,-35.599005236811024
0.445,-126.77241661192538,-35.59668789100477
0.45,-126.77468379804507,-35.590284654238374
0.455,-126.77568588189749,-35.5804150807486
0.46,-126.77572715123543,-35.566001497201974
0.465,-126.77430829690124,-35.54894347550273
0.47,-126.77189682665278,-35.52751991211511
0.475,-126.76805741919166,-35.50294812113457
0.48,-126.76278010826732,-35.474947926339674
0.485,-126.75537454981752,-35.4438255181311
0.49,-126.74580323449891,-35.41023727377675
0.495,-126.73406974110156,-35.37544504745227
0.5,-126.7200782124146,-35.33845556184671
0.505,-126.70356230038941,-35.299461953837465
0.51,-126.68423588303003,-35.25932634034679
0.515,-126.66216679879255,-35.21659684024485
0.52,-126.63726272395509,-35.17357049536728
0.525,-126.60946524269843,-35.129920192982176
0.53,-126.57969519128163,-35.084538770979414
0.535,-126.54797875376323,-35.03750371469275
0.54,-126.5139515277785,-34.9888175813715
0.545,-126.47782828602897,-34.93778007882331
0.55,-126.43978740175075,-34.886374343699075
0.555,-126.4003763392125,-34.83237663820179
0.56,-126.35990350857082,-34.77639313687673
0.565,-126.31879856848158,-34.71823229518156
0.57,-126.27675326734226,-34.65972357018213
0.575,-126.234263992387,-34.59988416498608
0.58,-126.191758544925,-34.539219336790666
0.585,-126.14993116491638,-34.475151631972885
0.59,-126.10872250786865,-34.40882749779091
0.595,-126.06833984914478,-34.3420909963979
0.6,-126.0294944619333,-34.271167433010284
0.605,-125.99214231352676,-34.19684213232397
0.61,-125.95649294434511,-34.118948925229816
0.615,-125.92259281070677,-34.037082921469825
0.62,-125.89059299191132,-33.95084340075588
0.625,-125.86053962716923,-33.85983943237608
0.63,-125.83246469908477,-33.76375503861858
0.635,-125.80635294117405,-33.66230055267325
0.64,-125.78140345194441,-33.556371657341536
0.645,-125.75899295567042,-33.44417183628104
0.65,-125.73751067974119,-33.327723377652305
0.655,-125.71710124804396,-33.20571483838755
0.66,-125.69981761761068,-33.07578930893048
0.665,-125.68477324514471,-32.93846130376616
0.67,-125.67134822985558,-32.796164909736845
0.675,-125.65985997417596,-32.646825928106466
0.68,-125.64895716777035,-32.49147149652251
0.685,-125.6391149742892,-32.33003931459314
0.69,-125.62981659833504,-32.163744954584985
0.695,-125.62117368456575,-31.992197442750072
0.7,-125.61281666628675,-31.817181779881153
0.705,-125.60441957914999,-31.63980343609081
0.71,-125.59624041314399,-31.459832213639572
0.715,-125.5873947314751,-31.28009353326176
0.72,-125.57840716663785,-31.100815311784494
0.725,-125.56827753742766,-30.9235741987355
0.73,-125.55710215406677,-30.74978422840775
0.735,-125.54409064757739,-30.58037488278272
0.74,-125.52919067249302,-30.41585562753345
0.745,-125.51230159233263,-30.256890389362713
0.75,-125.49353199392725,-30.104195549162487
0.755,-125.472090036012,-29.958096448390105
0.76,-125.44819649368941,-29.819175609866022
0.765,-125.42211843982636,-29.686956538086363
0.77,-125.39365777254056,-29.56300418355965
0.775,-125.36315257423485,-29.44671116673028
0.78,-125.3311668440937,-29.338141312373445
0.785,-125.29720202042844,-29.238372894062728
0.79,-125.26215257423482,-29.147353656933916
0.795,-125.22594147092558,-29.064434240865598
0.8,-125.18959614034054,-28.990230609979285
0.805,-125.15348279688995,-28.92449161928867
0.81,-125.1170604770186,-28.867342700853374
0.815,-125.08166400144724,-28.81922725996003
0.82,-125.04763392149073,-28.780191071144888
0.825,-125.0156862216561,-28.75044764547273
0.83,-124.98618401322554,-28.729586174091725
0.835,-124.9588654556138,-28.71822510362581
0.84,-124.93423445604418,-28.716090658904523
0.845,-124.9121288590884,-28.72314814831538
0.85,-124.89295845885286,-28.739235885296967
0.855,-124.8764259439601,-28.764039831026203
0.86,-124.86259532492001,-28.79721802758784
0.865,-124.85163061450758,-28.83819290131092
0.87,-124.84343357720206,-28.886744524224227
0.875,-124.83772189630326,-28.942543663502583
0.88,-124.83454125801025,-29.0048603841531
0.885,-124.83386753946621,-29.073444322634163
0.89,-124.83561836054935,-29.147922462569376
0.895,-124.840030034653,-29.227827726561767
0.9,-124.84686189947436,-29.313260848489776
0.905,-124.85707875602832,-29.40326471947213
0.91,-124.86998217399928,-29.497724879385153
0.915,-124.8840156741918,-29.596567331082802
0.92,-124.89888695100441,-29.699255507485443
0.925,-124.91417696889836,-29.804855006907854
0.93,-124.92964916532411,-29.913094260345076
0.935,-124.94496081451209,-30.023133744818104
0.94,-124.96138521823582,-30.13496640240944
0.945,-124.9774050374843,-30.249245076898102
0.95,-124.99341409771215,-30.365698985253896
0.955,-125.00960026274421,-30.48312096083658
0.96,-125.02524016398772,-30.602116738770395
0.965,-125.04008724999193,-30.72288821717307
0.97,-125.05454685270092,-30.84473562028526
0.975,-125.06773430881546,-30.96776967541674
0.98,-125.07987913655788,-31.09169846429078
0.985,-125.09039923893846,-31.215807515458412
0.99,-125.09960311671598,-31.33956328342598
0.995,-125.10757131531618,-31.462692987383033
1.0,-125.11412666198315,-31.584689245508926
1.005,-125.11914992411818,-31.704854934425995
1.01,-125.12363940292857,-31.822748873133545
1.015,-125.1272707875579,-31.937780919159508
1.02,-125.13052821128211,-32.04931201159648
1.025,-125.13328557837988,-32.15687013295823
1.03,-125.13593961357888,-32.259866329927576
1.035,-125.13850087204452,-32.35797199936516
1.04,-125.14121687920209,-32.450657416928415
1.045,-125.34275150059784,-32.53982414324158
1.05,-125.45364825930133,-32.601932023374765
1.055,-125.23683533035616,-32.61892675485226
1.06,-125.08811132754748,-32.67424098167507
1.065,-125.00592013408897,-32.74934322634651
1.07,-124.96849475639073,-32.82977456114458
1.075,-124.96067403564962,-32.9090881605466
1.08,-124.97109785045855,-32.98349269066053
1.085,-124.99358245939646,-33.051928555572545
1.09,-125.02414847448175,-33.11312688622556
1.095,-125.05886083489759,-33.166870121632925
1.1,-125.09763038800186,-33.212312253957556
1.105,-125.13799388434379,-33.24831725067322
1.11,-125.17984282769473,-33.27506881469505
1.115,-125.22154576547362,-33.292654119005455
1.12,-125.26322616593566,-33.301201463226164
1.125,-125.30451428118175,-33.30068131327939
1.13,-125.34475193095865,-33.29122490430071
1.135,-125.38394606899125,-33.27348520464726
1.14,-125.42202727128345,-33.2476164782888
1.145,-125.45888439149006,-33.21389484019959
1.15,-125.49448220797514,-33.17270980769602
1.155,-125.5281541144736,-33.12423706086145
1.16,-125.55909791841025,-33.06871313279965
1.165,-125.58792113071405,-33.006678959885214
1.17,-125.61438433486362,-32.93890484269116
1.175,-125.6386413961787,-32.865958105505726
1.18,-125.66060327526998,-32.78850380076496
1.185,-125.68037201295373,-32.707110061382416
1.19,-125.699399420143,-32.62239610410139
1.195,-125.71585503635175,-32.5354134363173
1.2,-125.73074151169662,-32.44583908129227
1.205,-125.74401891322324,-32.354589660014334
1.21,-125.75536496862657,-32.26370302838055
1.215,-125.76603991030133,-32.171092788058004
1.22,-125.7758243221793,-32.07785555731665
1.225,-125.78411062537981,-31.98445508844986
1.23,-125.79159389793412,-31.89107247049702
1.235,-125.79825037939463,-31.798248642097736
1.24,-125.80411241477482,-31.706299655710733
1.245,-125.80935706357775,-31.61532712405656
1.25,-125.8137473555436,-31.52550296042885
1.255,-125.81733930553112,-31.436906369339592
1.26,-125.81971140908954,-31.350635319032673
1.265,-125.82068644816175,-31.264918659538687
1.27,-125.81956035244046,-31.18292600285337
1.275,-125.81665645880753,-31.10317057464436
1.28,-125.81233581734338,-31.022280672268312
1.285,-125.80600924143002,-30.94370943396167
1.29,-125.79799064531232,-30.863734249925795
1.295,-125.78753294525116,-30.785972599605287
1.3,-125.53324741217003,-30.706905046546336
1.305,-125.29283018867685,-30.653441364469728
1.31,-125.38018482864604,-30.653960332056762
1.315,-125.45548300074506,-30.632136177489272
1.32,-125.50622698135618,-30.59467752383913
1.325,-125.54019354911536,-30.544424249699293
1.33,-125.56178477428467,-30.490242990780633
1.335,-125.57561734127373,-30.432962594848675
1.34,-125.58365192869358,-30.37208815601654
1.345,-125.58724224784014,-30.306784246528217
1.35,-125.58911612946825,-30.23557882398185
1.355,-125.58909216516555,-30.155631955423104
1.36,-125.58747228702562,-30.073085349610967
1.365,-125.58333801444864,-29.985918387731875
1.37,-125.57879562390754,-29.890129416294247
1.375,-125.57180749280603,-29.792008536999134
1.38,-125.56299628530418,-29.69024912228986
1.385,-125.5522266642482,-29.584185671249063
1.39,-125.54068504382644,-29.47027096423418
1.395,-125.52819909850491,-29.351018111394936
1.4,-125.51363242655312,-29.230816775011327
1.405,-125.49869075177,-29.107239996375352
1.41,-125.48286690525026,-28.97889191601113
1.415,-125.46696960293312,-28.846697968243348
1.42,-125.4495404652403,-28.713679924799557
1.425,-125.43140086977948,-28.580560939092074
1.43,-125.41375892998468,-28.447234186504243
1.435,-125.39461981018579,-28.31474050827824
1.44,-125.37636904572909,-28.18364895920578
1.445,-125.35788609028278,-28.054716460168432
1.45,-125.33917862238994,-27.928171396860094
1.455,-125.32026519286721,-27.804902856236303
1.46,-125.30127223719434,-27.68550933203417
1.465,-125.28238349679255,-27.569197105256663
1.47,-125.26258791818373,-27.458727957597606
1.475,-125.24451853948887,-27.351824138711564
1.48,-125.22519916645665,-27.252035418695257
1.485,-125.20620587102523,-27.15766319735389
1.49,-125.18521841944084,-27.07162287480978
1.495,-125.16403386259925,-26.99200090149215
1.5,-125.14051758816494,-26.9215461120292
1.505,-125.11668640286064,-26.858319173706704
1.51,-125.0905430700558,-26.804886828693228
1.515,-125.06427155767729,-26.758162805499044
1.52,-125.035769439849,-26.721964708146896
1.525,-125.00773825001458,-26.69133638360954
1.53,-124.97823404833393,-26.66828353983051
1.535,-124.94757595868296,-26.65588359192683
1.54,-124.91621792112832,-26.650694323766736
1.545,-124.883859498514,-26.656284364311247
1.55,-124.85119094429984,-26.669279566920594
1.555,-124.8172179437789,-26.690872925773576
1.56,-124.78264230220151,-26.72080715078433
1.565,-124.74610022876836,-26.762732544337975
1.57,-124.70930872726211,-26.811577779790646
1.575,-124.67239667942411,-26.865976622346537
1.58,-124.63419130670898,-26.931495216199174
1.585,-124.5950122313052,-27.00336698226409
1.59,-124.55557271965151,-27.07907014654867
1.595,-124.51502065731717,-27.159137973679517
1.6,-124.47503060091724,-27.24078235520571
1.605,-124.43426233889545,-27.324490214953386
1.61,-124.39203642211363,-27.414211712609045
1.615,-124.3478864526919,-27.505122306280473
1.62,-124.30265734217978,-27.59706704568567
1.625,-124.25546460848251,-27.69295696165205
1.63,-124.20833767469013,-27.785670146548654
1.635,-124.16042358830086,-27.875935434550644
1.64,-124.11278706199224,-27.963817785226762
1.645,-124.06386151441473,-28.053471272281964
1.65,-124.0137640943146,-28.14334222066131
1.655,-123.96381970146311,-28.22879175745716
1.66,-123.9119199075833,-28.313464834990054
1.665,-123.85943024756833,-28.39710924596199
1.67,-123.80407279892852,-28.484233518312436
1.675,-123.74909014926487,-28.56591901741774
1.68,-123.69322664159765,-28.64350514620888
1.685,-123.63585340551076,-28.71539790935187
1.69,-123.57801118937905,-28.78544541439162
1.695,-123.51862742077726,-28.848771550883956
1.7,-123.45785292984884,-28.907128634849617
1.705,-123.39468010600231,-28.96506925638125
1.71,-123.33129395909074,-29.014184602142187
1.715,-123.26672010690831,-29.057485664453903
1.72,-123.20024376542833,-29.099218562141278
1.725,-123.1336724274592,-29.13292825432003
1.73,-123.063343314682,-29.165419252983654
1.735,-122.99250336360726,-29.191525964347445
1.74,-122.91912917619644,-29.21394189675814
1.745,-122.84550592312162,-29.230101191419404
1.75,-122.7699630795691,-29.242407533578906
1.755,-122.69409560805218,-29.25054843824266
1.76,-122.6168626469432,-29.254564515617005
1.765,-122.54058837119517,-29.25181650320449
1.77,-122.46298955808503,-29.2460160977593
1.775,-122.3863723527123,-29.23468646401901
1.78,-122.30870807945585,-29.220955231148505
1.785,-122.23173650592078,-29.203453521030497
1.79,-122.15507755554817,-29.182723287050113
1.795,-122.07869213345484,-29.159231959953235
1.8,-122.00261086321086,-29.133323432013757
1.805,-121.92679444607798,-29.105303957053955
1.81,-121.85241749529767,-29.074481286098784
1.815,-121.7790429001766,-29.041128913451615
1.82,-121.70697766653598,-29.005387150331273
1.825,-121.63613325329898,-28.96741770821481
1.83,-121.56591025844065,-28.928727896441046
1.835,-121.49627921356988,-28.888822643773935
1.84,-121.4278865659448,-28.846280334774857
1.845,-121.36017089854576,-28.803027814898996
1.85,-121.29410335454706,-28.75822937325819
1.855,-121.22882185326726,-28.713915998096805
1.86,-121.16386112935508,-28.672597886701304
1.865,-121.09980090149035,-28.630682556795755
1.87,-121.03740304423427,-28.587945394006113
1.875,-120.97632734603043,-28.54571922580298
1.88,-120.91562490656408,-28.506491639674188
1.885,-120.85499879951752,-28.46967833019946
1.89,-120.79464237015328,-28.43461184171727
1.895,-120.7350390495798,-28.399150714624927
1.9,-120.67557104350941,-28.36566222564443
1.905,-120.61671698112974,-28.3314538426686
1.91,-120.55756388592943,-28.299161283380737
1.915,-120.49927327912067,-28.264396140342388
1.92,-120.4415721307368,-28.229148236652613
1.925,-120.38549566241359,-28.18848472219022
1.93,-120.32948619447548,-28.147843403021046
1.935,-120.27402736188587,-28.106195343042337
1.94,-120.21771437631426,-28.067065985639
1.945,-120.16247858388408,-28.02394512446434
1.95,-120.10672411605921,-27.983097909351883
1.955,-120.05130813834737,-27.942106351219202
1.96,-119.99738734738949,-27.89578260436197
1.965,-119.94311556320412,-27.8523373371985
1.97,-119.88938080137486,-27.80959356497263
1.975,-119.83753154091596,-27.762390892205406
1.98,-119.78615227977755,-27.716777426441745
1.985,-119.73632077736525,-27.669305141678784
1.99,-119.68804790595254,-27.62137722938179
1.995,-119.64128519332031,-27.573461688825947
2.0,-119.59661591428797,-27.52525198985202
2.005,-119.55365634555483,-27.477451070238892
2.01,-119.51342664612784,-27.427769852091256
2.015,-119.47533690457085,-27.37827356904974
2.02,-119.43922086570248,-27.32989010396559
2.025,-119.4055475548687,-27.28149014247156
2.03,-119.37386319055695,-27.23427301411078
2.035,-119.34508294638381,-27.185984690479444
2.04,-119.31840012231079,-27.138536016670297
2.045,-119.29384627058143,-27.091887003102606
2.05,-119.27139810641008,-27.045652442863418
2.055,-119.25098951278395,-26.999858078325147
2.06,-119.23247004461933,-26.954464751182975
2.065,-119.21570171464583,-26.90939412670677
2.07,-119.20087240933879,-26.864479036897258
2.075,-119.1873842216109,-26.81963784457127
2.08,-119.17539067702324,-26.774519995922386
2.085,-119.16466280096718,-26.72910807719263
2.09,-119.15468416045432,-26.683309483793003
2.095,-119.14557493940744,-26.636650252553338
2.1,-119.13725280300572,-26.588992663479978
2.105,-119.13002693152505,-26.54011291535431
2.11,-119.12327343767468,-26.490793157262395
2.115,-119.11767575709301,-26.438609461142445
2.12,-119.11237477632334,-26.38603012072703
2.125,-119.10683342770842,-26.332601458696182
2.13,-119.10178348320233,-26.27732598473301
2.135,-119.09793594418673,-26.21785703639896
2.14,-119.09489252304468,-26.154815436362725
2.145,-119.09253321705813,-26.087932614554756
2.15,-119.08988325896169,-26.019144010056355
2.155,-119.08757695530814,-25.94542124623385
2.16,-119.08483184216855,-25.868941285192825
2.165,-119.08241398445941,-25.786720396837485
2.17,-119.07973646061969,-25.700689585267575
2.175,-119.0759986636141,-25.610814702484276
