Time (s),Elbow Flexion Angle Z (deg) (Smoothed),Shoulder Angle Z (deg) (Smoothed)
0.005,103.3701292169826,-22.72597649303874
0.01,103.39586396944189,-22.7369264622088
0.015,103.41975615071694,-22.746944522886388
0.02,103.44187570136577,-22.756062311256052
0.025,103.4622925619465,-22.76431146350234
0.03,103.48107667301716,-22.771723615809808
0.035,103.49829797513581,-22.778330404362997
0.04,103.51402640886054,-22.784163465346463
0.045,103.5283319147494,-22.789254434944755
0.05,103.54128443336046,-22.79363494934242
0.055,103.55295390525178,-22.797336644724005
0.06,103.56341027098144,-22.800391157274067
0.065,103.57272347110748,-22.802830123177152
0.07,103.580963446188,-22.80468517861781
0.075,103.58820013678101,-22.80598795978059
0.08,103.59450348344463,-22.80677010285004
0.085,103.5999434267369,-22.807063244010713
0.09,103.60458990721588,-22.806899019447158
0.095,103.60851286543965,-22.806309065343925
0.1,103.61178224196627,-22.805325017885558
0.105,103.61446797735378,-22.803978513256617
0.11,103.61664001216029,-22.80230118764164
0.115,103.61836828694383,-22.800324677225184
0.12,103.6197227422625,-22.798080618191797
0.125,103.62077331867431,-22.79560064672603
0.13,103.62158995673542,-22.792916399012
0.135,103.62040639651889,-22.790258504155943
0.14,103.6208093954543,-22.78803864866658
0.145,103.62248537905529,-22.786462998028963
0.15,103.62372572424997,-22.78378822849851
0.155,103.62589893315618,-22.781400088336785
0.16,103.62755777027593,-22.778313248317758
0.165,103.63006566399946,-22.775566979999113
0.17,103.63224338036905,-22.772134252191005
0.175,103.63562073885961,-22.76929182087886
0.18,103.63880577136314,-22.765754553896596
0.185,103.64324319916447,-22.762734007564855
0.19,103.64760046659974,-22.759031488821506
0.195,103.65321656209456,-22.755882094724246
0.2,103.65938114113371,-22.75246995175385
0.205,103.66688448209274,-22.749685188792064
0.21,103.67454626378657,-22.74646098212827
0.215,103.68330983714043,-22.74370628100253
0.22,103.69222498810645,-22.74058830324539
0.225,103.70217261998941,-22.737954089559917
0.23,103.71254988787769,-22.73508925230426
0.235,103.72397041835404,-22.73263480259985
0.24,103.73576008516415,-22.729994362272773
0.245,103.7484228181819,-22.727627570272954
0.25,103.76130354028206,-22.725049536795414
0.255,103.77435939658683,-22.722190593217988
0.26,103.78821515775923,-22.72002251240075
0.265,103.80215943735784,-22.717702897007428
0.27,103.8161576706134,-22.715466044530583
0.275,103.83027776393378,-22.713555620738425
0.28,103.84501972864419,-22.712799329542698
0.285,103.86058273120369,-22.71323910167797
0.29,103.87656218713701,-22.714577922489315
0.295,103.89273539604321,-22.71673469614217
0.3,103.90887238668853,-22.71969627624591
0.305,103.92414922195093,-22.722828788873606
0.31,103.93879904414396,-22.726740304423217
0.315,103.952985209176,-22.73175882805909
0.32,103.9668676980206,-22.738056225508636
0.325,103.98046596751709,-22.745730542027697
0.33,103.99381614532405,-22.754823133026363
0.335,104.00694552537797,-22.76533585358628
0.34,104.01981465038646,-22.777247819882234
0.345,104.03235618020592,-22.790511123694326
0.35,104.04450775781811,-22.805064703616857
0.355,104.05556739676805,-22.82034126480737
0.36,104.06629248680406,-22.83694918118147
0.365,104.07583200072281,-22.854205723798515
0.37,104.08501562889109,-22.8727420371918
0.375,104.09272257582077,-22.89163404607082
0.38,104.10004840426535,-22.911709572130302
0.385,104.10563360438316,-22.931842114203736
0.39,104.11077897573925,-22.953051604792424
0.395,104.1140079050468,-22.97407208090739
0.4,104.11590717796354,-22.995490142471642
0.405,104.1175872839682,-23.018322659629447
0.41,104.11826059480198,-23.041679890823808
0.415,104.11870982355008,-23.06623747989718
0.42,104.11816890529597,-23.091028286030955
0.425,104.11755441799161,-23.116962825884627
0.43,104.11604079367397,-23.143037371174444
0.435,104.11463403474397,-23.170213182631098
0.44,104.11245235452473,-23.197443004371117
0.445,104.11055650184402,-23.225693961357685
0.45,104.10806525628921,-23.25388614691115
0.455,104.10601238985959,-23.282944594441105
0.46,104.10358003578588,-23.311785259008815
0.465,104.10171990305355,-23.34128369611951
0.47,104.0996488029154,-23.370400471131397
0.475,104.09831957688536,-23.39995138055177
0.48,104.09706713628647,-23.429017977756693
0.485,104.0967259960568,-23.458316260843507
0.49,104.09677444562533,-23.48716378400372
0.495,104.09796926317496,-23.5161302883413
0.5,104.09994097261345,-23.544788797027792
0.505,104.10344897958984,-23.57368426011869
0.51,104.10879091258946,-23.603110185960723
0.515,104.11544048562621,-23.632179908944256
0.52,104.12424738951987,-23.661828551042603
0.525,104.13605307028271,-23.69294626378808
0.53,104.15064146413083,-23.724924365217333
0.535,104.16729264535802,-23.756706940134087
0.54,104.1854200548124,-23.7880272826107
0.545,104.20425155722465,-23.81836123581462
0.55,104.22490826519086,-23.849042435841803
0.555,104.24636714308164,-23.879199499421954
0.56,104.27037230741153,-23.91072586241998
0.565,104.29563996919323,-23.942242508323623
0.57,104.32292140252126,-23.974554841558803
0.575,104.35077036852279,-24.006435894357285
0.58,104.37991530951803,-24.038775295023214
0.585,104.40890912591252,-24.07037209223266
0.59,104.43837794740338,-24.102143731454383
0.595,104.46686846813998,-24.13289841445966
0.6,104.49504367029631,-24.163540392760414
0.605,104.52144492513786,-24.1929006863118
0.61,104.547454075968,-24.22245086864888
0.615,104.57090713266237,-24.250427468345364
0.62,104.59339289677935,-24.278373704953214
0.625,104.613443339598,-24.305203279802022
0.63,104.63094303381531,-24.33084888898909
0.635,104.64565414844982,-24.3555044598967
0.64,104.65850528890599,-24.380008204035864
0.645,104.66789336111603,-24.403149380506452
0.65,104.67505270787358,-24.426126673310367
0.655,104.6793526920182,-24.448452895874862
0.66,104.68072101293146,-24.470225375432722
0.665,104.67910009286534,-24.491464678701206
0.67,104.67441534349389,-24.512193365647676
0.675,104.66663466895993,-24.532423135291385
0.68,104.655769145392,-24.552146721329567
0.685,104.64178823982223,-24.571359244829534
0.69,104.62473836326784,-24.590064028629854
0.695,104.60465231375368,-24.608260255044943
0.7,104.58157659289931,-24.6259516251779
0.705,104.55557786133122,-24.6431214342336
0.71,104.52677025526992,-24.659754442908767
0.715,104.49528387958756,-24.67582833812723
0.72,104.46124485265605,-24.691325504540963
0.725,104.42486167296904,-24.706269324333036
0.73,104.38630247570525,-24.720717058143542
0.735,104.34572812521034,-24.734764470315955
0.74,104.30341076807882,-24.748543020226485
0.745,104.25954626378653,-24.76218391356495
0.75,104.21431368773725,-24.775815452218147
0.755,104.16787555776826,-24.78954111531358
0.76,104.12036628235998,-24.80343897030463
0.765,104.07189193413015,-24.817558794083197
0.77,104.02250315975246,-24.831922786472603
0.775,103.97221513510866,-24.84654168610793
0.78,103.92022852159532,-24.86034516297037
0.785,103.86657253844734,-24.873623547531743
0.79,103.81124102470979,-24.886485546671025
0.795,103.75418621033121,-24.898936293007292
0.8,103.69631106027119,-24.91182029944005
0.805,103.63592745022338,-24.923011492898567
0.81,103.5745471924599,-24.934404267366848
0.815,103.51108575505476,-24.94503422048017
0.82,103.44659654805119,-24.955994484585815
0.825,103.37999415615106,-24.966237110692855
0.83,103.31239411991012,-24.976780726629794
0.835,103.24275116083973,-24.986512670728185
0.84,103.17283292939618,-24.996584744840856
0.845,103.10055258329551,-25.005372991460256
0.85,103.02790690615673,-25.01426707966158
0.855,102.9530345874179,-25.021748032797547
0.86,102.87783628168052,-25.029107080567595
0.865,102.80065489591865,-25.034965580193862
0.87,102.72326831864623,-25.040616315204847
0.875,102.6446651792773,-25.04507137647464
0.88,102.56486917030767,-25.048481267978406
0.885,102.48493764297974,-25.051846263788057
0.89,102.4037443203677,-25.054165625495
0.895,102.32136664476916,-25.055636958934038
0.9,102.23789619243729,-25.05644055810955
0.905,102.15334675756898,-25.056701053251007
0.91,102.06782969489487,-25.056503017055398
0.915,101.98141204557099,-25.05590783483157
0.92,101.89417071734161,-25.054962649210147
0.925,101.80623059185743,-25.053714210966923
0.93,101.71771752474379,-25.052197646605332
0.935,101.62878071303798,-25.050455283244894
0.94,101.53962095177499,-25.048524306325824
0.945,101.45043575845239,-25.04643125325554
0.95,101.36183730775137,-25.044967528142852
0.955,101.2734298149429,-25.042909866587657
0.96,101.18601722802134,-25.041156739676524
0.965,101.09913785816019,-25.03862726675528
0.97,101.01372039457098,-25.03641257333074
0.975,100.92915015062437,-25.033328997258803
0.98,100.84645267389784,-25.030596464245594
0.985,100.76476779768319,-25.02689344492466
0.99,100.68528083308603,-25.02350007021629
0.995,100.60689510294493,-25.01894726720829
1.0,100.53080840788954,-25.01455277809189
1.005,100.4563773969946,-25.00943413893812
1.01,100.38364364538076,-25.003524131916436
1.015,100.31252249201377,-24.996703581054586
1.02,100.24295964347812,-24.988909735214364
1.025,100.17492701080239,-24.980122068449543
1.03,100.10836631180584,-24.970347421232166
1.035,100.043282382385,-24.95964339396088
1.04,99.97969164873304,-24.94809634872769
1.045,99.91762866882411,-24.93583386713128
1.05,99.85717281251932,-24.923002072526646
1.055,99.79838703707706,-24.909757915241087
1.06,99.7419931368755,-24.89736361185936
1.065,99.68763881401425,-24.885199331807716
1.07,99.63457859067965,-24.872408231216536
1.075,99.58329165099812,-24.85953611406779
1.08,99.53410653695249,-24.84684804638789
1.085,99.48788953769996,-24.835160173502892
1.09,99.4436993884327,-24.823157765747332
1.095,99.4016185485496,-24.811540666832297
1.1,99.36167022582427,-24.7995849215153
1.105,99.32377720219974,-24.787853351151302
1.11,99.28771922806668,-24.775554406667855
1.115,99.25354501347519,-24.763393655574962
1.12,99.22083305623947,-24.75056097080294
1.125,99.1897152166508,-24.73785165915375
1.13,99.15900134317688,-24.72414898185642
1.135,99.12954325579098,-24.710565086411446
1.14,99.10021995514998,-24.696060381888127
1.145,99.07194345058588,-24.681715141905343
1.15,99.04365839996186,-24.66646985209131
1.155,99.01625942603269,-24.65135036580623
1.16,98.98879336111614,-24.635266936962985
1.165,98.96220446442535,-24.619220344741198
1.17,98.93557464268537,-24.602126517021432
1.175,98.90994323314041,-24.58499568053589
1.18,98.88442740039221,-24.56676697093885
1.185,98.86012311943456,-24.548469313007754
1.19,98.83615957552644,-24.52905776348228
1.195,98.81366052458532,-24.509567308432334
1.2,98.79173906543562,-24.488947960315734
1.205,98.77102985118387,-24.467305635461262
1.21,98.75115915196079,-24.44470364447619
1.215,98.73264075290305,-24.4212817640259
1.22,98.71509083557761,-24.39704563636729
1.225,98.69883166549451,-24.37204180615596
1.23,98.68357934947375,-24.34642610025095
1.235,98.66949314140562,-24.32019783687013
1.24,98.65637178871361,-24.29361810686492
1.245,98.64422624068308,-24.26667030963282
1.25,98.6329368343545,-24.239681913519664
1.255,98.62240512355697,-24.212609900563532
1.26,98.61264116740846,-24.185682953180812
1.265,98.60338399737064,-24.158886366621662
1.27,98.5945026795605,-24.132317585901824
1.275,98.58589276087608,-24.106060352442398
1.28,98.57748044123122,-24.080194568392937
1.285,98.5692161589145,-24.05478647081428
1.29,98.56107086230531,-24.029884529660457
1.295,98.55303436770744,-24.00551931414029
1.3,98.54509808829003,-23.98169935898842
1.305,98.53726868332049,-23.95840476341434
1.31,98.52955220503108,-23.935577922489294
1.315,98.52194523771585,-23.913121069559445
1.32,98.51442441504715,-23.89089912115744
1.325,98.50798269496288,-23.869811923259412
1.33,98.50243947088082,-23.849383768601328
1.335,98.49767698022416,-23.829306487122693
1.34,98.49278979138636,-23.80847701420145
1.345,98.48866974789728,-23.78798339486692
1.35,98.48364486171639,-23.765895866270583
1.355,98.47908421708117,-23.74391831751523
1.36,98.47431256426911,-23.72121141815171
1.365,98.47045592651966,-23.698958948107087
1.37,98.4666924890692,-23.67609179369816
1.375,98.46408049106246,-23.65369363518947
1.38,98.4617417132872,-23.63065290493511
1.385,98.46070554712263,-23.608020845318812
1.39,98.46006502072339,-23.584682217037304
1.395,98.4608299236657,-23.561675594010737
1.4,98.46207568234651,-23.53791297651091
1.405,98.46480433984728,-23.51442912183696
1.41,98.46808417178005,-23.490168422840384
1.415,98.47292116242535,-23.466186316790417
1.42,98.4783908695535,-23.44146522457995
1.425,98.48550747695116,-23.417099379373944
1.43,98.49333818432844,-23.39211072277923
1.435,98.5029101270678,-23.36761979433238
1.44,98.51328431674366,-23.34267295068926
1.445,98.52549459104209,-23.318407664952325
1.45,98.5385781104876,-23.293881501279312
1.455,98.55356780447839,-23.270247670388464
1.46,98.56946113162057,-23.24655918367302
1.465,98.58728482411644,-23.223995594463755
1.47,98.60598570522357,-23.201588430088574
1.475,98.62728804276239,-23.181351616117702
1.48,98.64956729031044,-23.16150641011077
1.485,98.67373255792695,-23.143071874787204
1.49,98.69854012774732,-23.12490712586877
1.495,98.72503344809434,-23.108177163695228
1.5,98.75198238465008,-23.09168315250584
1.505,98.78050154929706,-23.076584570431507
1.51,98.80934069854169,-23.061570998210165
1.515,98.83873506534499,-23.046928109356507
1.52,98.86865406917295,-23.032587530860962
1.525,98.89906267638943,-23.018441491313066
1.53,98.92992215905039,-23.004360196153492
1.535,98.96119604520864,-22.990210754490032
1.54,98.992847987495,-22.97587606061249
1.545,99.02486731069597,-22.961258137216713
1.55,99.05723293619145,-22.94626596298853
1.555,99.08916543296374,-22.930199816529942
1.56,99.12206838659802,-22.914216376361427
1.565,99.15479458651195,-22.897197868580953
1.57,99.18863786269034,-22.880224838614254
1.575,99.22248111621818,-22.862247822147285
1.58,99.25762858954711,-22.844352583297034
1.585,99.29299539060717,-22.825581249857997
1.59,99.32985914290055,-22.80700666832727
1.595,99.36718702801686,-22.787700758793648
1.6,99.406232401638,-22.768686554621414
1.605,99.44681491086813,-22.75002929851142
1.61,99.4899950372583,-22.732306996760528
1.615,99.53455251987396,-22.71439539060864
1.62,99.581612163354,-22.697170513487976
1.625,99.6299917733112,-22.67966283720992
1.63,99.68078006523173,-22.662811447597477
1.635,99.73273071417054,-22.645679041427453
1.64,99.78692288160356,-22.62921982151307
1.645,99.84211039887461,-22.612480463883234
1.65,99.89929725927915,-22.596402106502545
1.655,99.95718032344823,-22.580000756528595
1.66,100.01680688803631,-22.564214670773538
1.665,100.07692033341445,-22.54807430292829
1.67,100.13853147975979,-22.53252868241593
1.675,100.20043968606119,-22.516632408434642
1.68,100.26373253980645,-22.501342857142426
1.685,100.32728014224365,-22.48573369951711
1.69,100.39214867607228,-22.47075077351652
1.695,100.45729362839282,-22.45550575777437
1.7,100.52300617907349,-22.44031146571793
1.705,100.59032507870879,-22.42605812362638
1.71,100.65821275679892,-22.411803275271946
1.715,100.72699975310685,-22.397872157919338
1.72,100.79693661917405,-22.384512953860362
1.725,100.8682566694583,-22.371892113071215
1.73,100.94033383315396,-22.359119873609394
1.735,101.01364304061053,-22.34680640105056
1.74,101.08836826201984,-22.335081793471677
1.745,101.16467723844059,-22.32396072844189
1.75,101.24266442048324,-22.313406281002543
1.755,101.32240281093375,-22.30334239280575
1.76,101.40394523545073,-22.29368250016945
1.765,101.48732936419657,-22.284333543228186
1.77,101.57259034859032,-22.275217622142765
1.775,101.65973299281784,-22.266271256426673
1.78,101.74877194047235,-22.257455321750918
1.785,101.83973097012193,-22.24875914969719
1.79,101.93264178123883,-22.240210953815062
1.795,102.02752533466023,-22.23186721103493
1.8,102.1244242451678,-22.223819601802557
1.805,102.22337681487495,-22.21619713470251
1.81,102.32540030351566,-22.209913995786568
1.815,102.42922967677441,-22.20397029604252
1.82,102.53609270877965,-22.19963592606812
1.825,102.64479702824329,-22.19599354911733
1.83,102.75653029513495,-22.194242950009766
1.835,102.87011261863037,-22.193436671271858
1.84,102.98673213436122,-22.194638628281076
1.845,103.10520342476414,-22.196842120998916
1.85,103.22661763573157,-22.20099101225353
1.855,103.34979845522916,-22.20604683911258
1.86,103.47584035878302,-22.212898418989813
1.865,103.60353262814361,-22.220491671385112
1.87,103.7339510974181,-22.229682019977375
1.875,103.8665010532495,-22.240331873881203
1.88,104.00147924075091,-22.252240385965283
1.885,104.13750223107911,-22.264262266415578
1.89,104.27552051008882,-22.277133536433016
1.895,104.41370465922019,-22.289499941108094
1.9,104.55362934607605,-22.302848583206437
1.905,104.69347643208025,-22.315565444290492
1.91,104.83463972003696,-22.32897610364858
1.915,104.9754619130651,-22.34171563568781
1.92,105.11682756121114,-22.354756646809243
1.925,105.25759684250858,-22.367178210151554
1.93,105.3988337221661,-22.3799318897366
1.935,105.53930238510296,-22.39203619787495
1.94,105.67998065641149,-22.404375689143155
1.945,105.81967963034067,-22.415953233368388
1.95,105.9592887041589,-22.427606783845185
1.955,106.09806437291695,-22.438495956872888
1.96,106.23567226890552,-22.448594230899477
1.965,106.37213887064057,-22.457918457948786
1.97,106.50827137647308,-22.46736065822512
1.975,106.64273813676209,-22.475597406509344
1.98,106.77603528958548,-22.483199397494417
1.985,106.90798690796869,-22.49012040363272
1.99,107.03845763210742,-22.496420161271626
1.995,107.16737907993182,-22.50216743527556
2.0,107.2945995605769,-22.50747775034499
2.005,107.42008740854628,-22.512496097306418
2.01,107.54375428661824,-22.51739292169655
2.015,107.66552001177622,-22.522356234568868
2.02,107.78539246641847,-22.527571786449997
2.025,107.90329112776982,-22.53321949307982
2.03,108.02013565425963,-22.54021474552042
2.035,108.13556864254929,-22.548270185054726
2.04,108.24851117805403,-22.5564909873379
2.045,108.35995993114018,-22.566302971754304
2.05,108.46892108541323,-22.57672141158307
2.055,108.57649862963845,-22.5891462796435
2.06,108.68165759133635,-22.6024411583497
2.065,108.78563376293705,-22.61803178101386
2.07,108.88725785408293,-22.634603624090715
2.075,108.98710219936822,-22.652804489342476
2.08,109.08537670162195,-22.672712750005225
2.085,109.18228696006494,-22.694351242383313
2.09,109.27797680581456,-22.717705259461837
2.095,109.3725560714831,-22.742756991097888
2.1,109.46616054723566,-22.769474923553886
2.105,109.55886742621365,-22.797835427755572
2.11,109.65069598405191,-22.827803501777634
2.115,109.74172012955917,-22.85934718793134
2.12,109.83183288409492,-22.89244084803689
2.125,109.92100853926266,-22.927047595641596
2.13,110.00834181974467,-22.962016224602607
2.135,110.09423110376014,-22.998100233300423
2.14,110.178573761578,-23.035287018958083
2.145,110.26123962037433,-23.073578814921756
2.15,110.34258911866422,-23.11325339645248
2.155,110.4219040521848,-23.153580151305363
2.16,110.50033391469584,-23.195829984823675
2.165,110.57694244490035,-23.238876678973035
2.17,110.65154309270669,-23.28271708758931
2.175,110.72399821060287,-23.32716500033931
2.18,110.79398946748299,-23.372094815284157
2.185,110.86128795668998,-23.417457292350452
2.19,110.9256937869466,-23.463273460327073
2.195,110.98704072572211,-23.509617107974815
2.2,111.04522193027942,-23.556589340641462
2.205,111.10016285759374,-23.604301805249953
2.21,111.15244266008077,-23.65361834243086
2.215,111.20120992547749,-23.70375821649369
2.22,111.24740524133969,-23.75574313574441
2.225,111.2900307368209,-23.808580216992002
2.23,111.33038444811675,-23.86350258442954
