Time (s),Elbow Flexion Angle Z (deg) (Smoothed),Shoulder Angle Z (deg) (Smoothed)
0.005,98.05490021090837,13.816201331853486
0.01,98.09213422193127,13.821179077947571
0.015,98.12791709424808,13.82679182237771
0.02,98.1622892571855,13.832986864725566
0.025,98.19529114007025,13.839711504572797
0.03,98.22696317222903,13.846913041501066
0.035,98.25734578298855,13.854538775092037
0.04,98.2864794016755,13.862536004927367
0.045,98.3144044576166,13.870852030588722
0.05,98.34116138013856,13.879434151657758
0.055,98.36679059856807,13.888229667716143
0.06,98.39133254223185,13.897185878345532
0.065,98.4148276404566,13.90625008312759
0.07,98.43731632256902,13.915369581643978
0.075,98.45883901789581,13.924491673476355
0.08,98.4794361557637,13.933563658206387
0.085,98.49914816549938,13.942532835415731
0.09,98.51801547642955,13.951346504686052
0.095,98.53607851788092,13.959951965599009
0.1,98.55337771918022,13.968296517736263
0.105,98.56995350965413,13.976327460679478
0.11,98.58584631862935,13.983992094010313
0.115,98.60109657543259,13.99123771731043
0.12,98.61574470939058,13.998011630161491
0.125,98.62983114983,14.004261132145158
0.13,98.64339632607572,14.00993352284283
0.135,98.6577375070764,14.01408294865089
0.14,98.67064261930997,14.017263788534013
0.145,98.68447053387203,14.019491954517388
0.15,98.69701351559304,14.020630548823036
0.155,98.71018008561727,14.020620476114708
0.16,98.72132626106857,14.019697904822038
0.165,98.73322684545327,14.017665788579315
0.17,98.74373210944566,14.014597646605544
0.175,98.75499520034239,14.010530800244357
0.18,98.76501181906534,14.005418489659746
0.185,98.77581862329649,13.999458148542168
0.19,98.78559649595499,13.992467072866615
0.195,98.79617849781233,13.984815977711573
0.2,98.80585119028555,13.976199714602554
0.205,98.81634100432437,13.967133380144244
0.21,98.82637860653507,13.9575635733536
0.215,98.83646652245613,13.947501762214054
0.22,98.84620604996526,13.93711217921104
0.225,98.85588230990321,13.9264290085843
0.23,98.86509391832016,13.915594953452812
0.235,98.87420705565054,13.904671745679135
0.24,98.88272188724356,13.89377675372009
0.245,98.89114069854168,13.882982418627563
0.25,98.89883778341337,13.872370259801768
0.255,98.90648253867396,13.86203100183443
0.26,98.91331206142647,13.852005966159782
0.265,98.92017462229984,13.84239321615412
0.27,98.92616845454974,13.833193073455531
0.275,98.93231854854962,13.824510580080823
0.28,98.93759284241807,13.816298679471526
0.285,98.94318727717311,13.808678506874184
0.29,98.94794389453705,13.801556128111358
0.295,98.95320610432661,13.79506982717589
0.3,98.95771911481383,13.789074520373925
0.305,98.96271114634342,13.7837358196106
0.31,98.96789293528543,13.778960390948567
0.315,98.97339330901984,13.774715241568062
0.32,98.97921611587842,13.77096890076759
0.325,98.98540402953446,13.767696317017108
0.33,98.99200093546662,13.76486937189944
0.335,98.9990617816919,13.762466286891852
0.34,99.00663832249691,13.7604607420324
0.345,99.01478848218343,13.75883403701077
0.35,99.02355628439865,13.757560481550847
0.355,99.03299098507136,13.756622865749812
0.36,99.04313621599391,13.756001159708905
0.365,99.05401917370531,13.755679505764308
0.37,99.0661067362775,13.755862533692458
0.375,99.07817285555541,13.756042841287195
0.38,99.09141985548746,13.756730888581586
0.385,99.1050096061047,13.757437785680047
0.39,99.11964104283034,13.758652155201439
0.395,99.1346108428258,13.759876731069523
0.4,99.1504294117628,13.76161616118119
0.405,99.16662902217301,13.76337597907061
0.41,99.18338556479004,13.765894681645978
0.415,99.20144815737426,13.768231821785054
0.42,99.21996003533299,13.771288128836176
0.425,99.23938754897996,13.77426227774102
0.43,99.25902646039357,13.777923531676556
0.435,99.27950411334155,13.78154359328611
0.44,99.29991255747392,13.785811812271813
0.445,99.32093803709975,13.790095041790035
0.45,99.34156091417509,13.794983664408894
0.455,99.36259492853556,13.799938120908475
0.46,99.38286558472255,13.80544826383357
0.465,99.40333661011384,13.811063894991696
0.47,99.42267173208714,13.817175992660951
0.475,99.44200043488902,13.823425953022454
0.48,99.45982867335425,13.830102231080847
0.485,99.47746310675022,13.836932082266602
0.49,99.49325745316803,13.84410746789255
0.495,99.5086951776918,13.851435144623624
0.5,99.52199503952332,13.859015986771803
0.505,99.53480981222486,13.866740150399517
0.51,99.54524521053513,13.874615438628016
0.515,99.55510540442401,13.88261284513779
0.52,99.56241221092019,13.890650422432858
0.525,99.56909280164706,13.898773822736375
0.53,99.57312140705149,13.906822815918554
0.535,99.57651516002437,13.914919456839073
0.54,99.57723825228013,13.922826976828201
0.545,99.57735740560184,13.930736431175976
0.55,99.57486875353723,13.938344757525387
0.555,99.57185151192361,13.945902455321486
0.56,99.56663951844698,13.953047659063358
0.565,99.5601258692137,13.95995629572557
0.57,99.55180964461066,13.966453586717439
0.575,99.54222343427747,13.972671899703009
0.58,99.53112722371776,13.97843947314748
0.585,99.5189117624389,13.983879021042112
0.59,99.50549309157434,13.988837633921225
0.595,99.4911478968927,13.993422806858323
0.6,99.47592183967734,13.99751631520506
0.605,99.45998626469265,14.001206797435687
0.61,99.44349933407135,14.004412935740067
0.615,99.42661001834504,14.007150773516686
0.62,99.40960110987601,14.00949097374772
0.625,99.39190534553254,14.011133389204469
0.63,99.37493889102622,14.012604151849152
0.635,99.3576885003039,14.013417628938099
0.64,99.34111955876499,14.014006575460105
0.645,99.32459156945606,14.013997864051012
0.65,99.30886528800008,14.01391814310603
0.655,99.29348970531419,14.013294061020364
0.66,99.27869497383669,14.012434451516185
0.665,99.26456418718242,14.011136383609779
0.67,99.25129610636517,14.009922603003195
0.675,99.23852090194377,14.008096432535012
0.68,99.22662923055825,14.006454653559267
0.685,99.2158594079122,14.004552630863396
0.69,99.20550038958791,14.002553523295843
0.695,99.19645289587343,14.000426372057989
0.7,99.18815045414205,13.998619074044443
0.705,99.18077797911428,13.996371313053254
0.71,99.17409780289282,13.994536193344997
0.715,99.16855688916885,13.992486289609918
0.72,99.16360743165001,13.990903415705636
0.725,99.15975579741142,13.98918154658063
0.73,99.15640486534046,13.987966705927386
0.735,99.15414830233789,13.98671352238982
0.74,99.15229669754504,13.985992903576257
0.745,99.15147184987013,13.985319701465224
0.75,99.1509690570549,13.985186035923537
0.755,99.15140048245524,13.985179847787906
0.76,99.1520877936061,13.985701141588443
0.765,99.15359870891562,13.986413248317927
0.77,99.14907358716881,13.806978522729583
0.775,99.21312291784449,13.841548664748654
0.78,99.25738360778084,13.697574678927912
0.785,99.33784664205113,13.588847894629291
0.79,99.43575448820846,13.515766200819693
0.795,99.54404634985879,13.65472256902735
0.8,99.5874714195093,13.794251761081528
0.805,99.57462372420476,13.927338404040595
0.81,99.5181310335436,14.054721894040366
0.815,99.43126040453726,14.177048787061722
0.82,99.32382764501837,14.293868665201657
0.825,99.20590042356375,14.405168880382066
0.83,99.08128790459389,14.510575306348679
0.835,98.95369014473526,14.610116727445412
0.84,98.82547652494772,14.703555675099945
0.845,98.69805267163278,14.791139142449149
0.85,98.57446875353725,14.872432059616013
0.855,98.45534866474704,14.947486065369256
0.86,98.34329563070324,15.016083630433016
0.865,98.2362437291879,15.078420401367804
0.87,98.13680084486437,15.134279483113708
0.875,98.04346358014715,15.183631656435871
0.88,97.95805206686259,15.22641829033471
0.885,97.87963361797361,15.26264997621661
0.89,97.8093755464431,15.292243187840883
0.895,97.74675159120065,15.315267670841628
0.9,97.69240607941103,15.331604935558834
0.905,97.64634467371667,15.341224041314344
0.91,97.60847447960131,15.344067410360077
0.915,97.57920872499756,15.340402074791887
0.92,97.55879931142081,15.329876416226575
0.925,97.54667050442632,15.312586652019004
0.93,97.5440037871734,15.288655215293371
0.935,97.5495806428213,15.257981009762103
0.94,97.56440416090776,15.220358898276
0.945,97.58777034813738,15.176360934562215
0.95,97.62052341389197,15.125420940451363
0.955,97.66125318353569,15.06777473555431
0.96,97.71189963758901,15.003595746222729
0.965,97.77042040363129,14.932786810573
0.97,97.83875452897952,14.855382314434923
0.975,97.91515537837589,14.77130154929868
0.98,98.00045022084116,14.680865831615385
0.985,98.09405057419008,14.583784450383648
0.99,98.19641961086134,14.480427762802956
0.995,98.30710205666983,14.370496978413733
1.0,98.42656501845832,14.254360880200865
1.005,98.55435064667188,14.13172978096872
1.01,98.69096694828686,14.002950422432857
1.015,98.8359551609304,13.867749147205785
1.02,98.98987950123256,13.726452277514515
1.025,99.15987532899763,13.798617703684982
1.03,99.2593670026482,13.691104661486975
1.035,99.36290730254173,13.796941092663216
1.04,99.40715874198546,13.941425592878394
1.045,99.39200162177889,14.124435137828447
1.05,99.30956526308444,14.13108801784838
1.055,99.23345181317619,14.133007748759612
1.06,99.16981848965813,14.136359296926047
1.065,99.11822522593755,14.140404446306555
1.07,99.07639850732556,14.144503662596843
1.075,99.04184279598444,14.1487261976486
1.08,99.01038356474477,14.15304634759537
1.085,98.98152302203711,14.157524118326306
1.09,98.9548660671797,14.162146277378604
1.095,98.93014919024023,14.166890466374957
1.1,98.90825782237233,14.171483929420551
1.105,98.88761039887464,14.176093940972343
1.11,98.86881293573843,14.18067295748461
1.115,98.84993675734256,14.185259342227187
1.12,98.83373461233361,14.189631237400347
1.125,98.8182865478248,14.193903950259077
1.13,98.80545507938835,14.197959822419262
1.135,98.79407632335764,14.201816455638587
1.14,98.78550555391779,14.205383687059458
1.145,98.77899526829411,14.208659136106997
1.15,98.7763150535667,14.211347982966501
1.155,98.77603294978181,14.213883881854354
1.16,98.77914718566484,14.215748655688419
1.165,98.78446882148896,14.217454615053297
1.17,98.79333832929211,14.218396423474779
1.175,98.80382645359842,14.219232639470611
1.18,98.81786864481454,14.219227703911478
1.185,98.83324698860488,14.219124394663254
1.19,98.85210827651625,14.218112548415318
1.195,98.87315012570878,14.216422172642371
1.2,98.89567181815936,14.214707470157602
1.205,98.92000233300678,14.212270117103174
1.21,98.94613666447523,14.209597277401254
1.215,98.97355485741276,14.206199220820132
1.22,99.00248698724583,14.20252573331192
1.225,99.03214682778582,14.19814349588865
1.23,99.06267534711809,14.193608577770458
1.235,99.09435009399796,14.188247951255704
1.24,99.12637361208444,14.182790190038006
1.245,99.15944715621906,14.176967066071441
1.25,99.19306262429309,14.170691508301163
1.255,99.22705210536854,14.163939541099186
1.26,99.26114002128963,14.156720901945413
1.265,99.29509580964269,14.149049733855534
1.27,99.32867251579687,14.140943871888107
1.275,99.36164849939784,14.132423552062063
1.28,99.39381231284776,14.123507456567262
1.285,99.42497119979876,14.11421903780353
1.29,99.45493868264096,14.104574572470224
1.295,99.48355160705601,14.09459743142513
1.3,99.51066627556492,14.084308774830417
1.305,99.53615191736883,14.073730034655103
1.31,99.55990122765897,14.062880069763484
1.315,99.58181995061985,14.051778203356545
1.32,99.6018373281369,14.040446682823804
1.325,99.61989823325365,14.028907834831777
1.33,99.6359696867407,14.017181220412425
1.335,99.65003551835638,14.005286094815016
1.34,99.66209950621567,13.993247108654515
1.345,99.67217930190753,13.981082916940094
1.35,99.68031147477669,13.96881188022352
1.355,99.68654734195373,13.956457765747546
1.36,99.69095194907962,13.944041597770916
1.365,99.69073681170391,13.751738635076409
1.37,99.75603363156392,13.772351552696286
1.375,99.80320681328944,13.797444580850945
1.38,99.82564957529992,13.81984326258779
1.385,99.82960889034668,13.840422301750623
1.39,99.81830013137139,13.859584457178833
1.395,99.79488655461994,13.877445353235368
1.4,99.7620768873568,13.894030621304857
1.405,99.7209352850555,13.909623189652953
1.41,99.67419256155102,13.923760415864193
1.415,99.62232339350646,13.936920704885459
1.42,99.56632325533796,13.948752125755698
1.425,99.50940310765625,13.959521234908792
1.43,99.45042639470691,13.968840159459743
1.435,99.3916271489709,13.977156320641196
1.44,99.33259807922977,13.983931452580762
1.445,99.2746671883829,13.989768465876647
1.45,99.2164725837486,13.994743176515621
1.455,99.16177914335356,13.997989863869808
1.46,99.10820838976909,14.000331083376476
1.465,99.05824080499937,14.001126899816263
1.47,99.01091365376148,14.001140139074227
1.475,98.96705841808233,13.999465589254303
1.48,98.92635363881213,13.997062744342752
1.485,98.89013380597332,13.993020944981495
1.49,98.85738635076483,13.988294237694811
1.495,98.82951186663155,13.981956791773044
1.5,98.80503975854303,13.974420591632613
1.505,98.7850960882447,13.965552798477614
1.51,98.7686177376592,13.955603202790282
1.515,98.75672202767709,13.9443740265915
1.52,98.74815000792582,13.932081467303638
1.525,98.74416279190731,13.91854550046407
1.53,98.74330676572326,13.903943452852573
1.535,98.7469367437522,13.888117078529259
1.54,98.75338470180337,13.871153475729649
1.545,98.76319118666146,13.853040714398702
1.55,98.77618502797154,13.833783788987025
1.555,98.79238579356081,13.813365596049476
1.56,98.81174836349443,13.791771800040507
1.565,98.83422879793237,13.768985064214101
1.57,98.85978273799897,13.74498310040971
1.575,98.8883622981249,13.719741446012103
1.58,98.91992680921236,13.693230913497214
1.585,98.9471746041794,13.486505628666302
1.59,99.03759302815276,13.315935307707733
1.595,99.16704865568678,13.180087927246118
1.6,99.3134154069156,13.076800412240118
1.605,99.46015480078634,13.004511452127772
1.61,99.5942987519517,12.961715418242521
1.615,99.71005166368245,12.947075188565744
1.62,99.80629009263892,13.177779195451512
1.625,99.79718693514951,13.260684647443629
1.63,99.75259414029571,13.363537165054446
1.635,99.68250590953173,13.491075007361177
1.64,99.58550193888688,13.641162241500112
1.645,99.46256333099086,13.811932666651302
1.65,99.31448226686709,14.00171090851408
1.655,99.14219225576834,14.208898409929741
1.66,98.95753690457126,14.602042843552235
1.665,98.70089879951792,14.978807902783467
1.67,98.38859801807327,15.33259380053879
1.675,98.04117092799196,15.663966305012272
1.68,97.67208191351827,15.973647944460499
1.685,97.29765199891092,16.261059072685363
1.69,96.92678518426054,16.526244773380736
1.695,96.5674504949131,16.76885114725103
1.7,96.22193782191938,16.9888020566714
1.705,95.89669773041109,17.186143468707908
1.71,95.59305911118982,17.36069491494678
1.715,95.31319703050848,17.512490269314938
1.72,95.05746767310515,17.6414108564177
1.725,94.82682270039909,17.747446155065457
1.73,94.62266230945025,17.830804545968988
1.735,94.44524704070128,17.891301472286685
1.74,94.29485109968336,17.929158384108018
1.745,94.17350211329635,17.944267679901806
1.75,94.07978622618678,17.93661296292067
1.755,94.01524840653062,17.906230777593713
1.76,93.9779524972235,17.85318976194217
1.765,93.96989763527873,17.777423259869643
1.77,93.98903511517634,17.679015257423387
1.775,94.03736329021996,17.557879152415346
1.78,94.11273677772816,17.414097053160553
1.785,94.21715725384313,17.247574597385793
1.79,94.34850801150468,17.05837490090343
1.795,94.50878254773426,16.846478846632667
1.8,94.69737438673403,16.611866071711386
1.805,94.91446566173458,16.35436554168806
1.81,95.15969203379282,16.07409779156915
1.815,95.43294702711088,15.771023604158344
1.82,95.73438564180206,15.445006271942445
1.825,96.06358215814443,15.096128310946732
1.83,96.42044432489791,14.724347935400292
1.835,96.80547598133408,14.329484223877957
1.84,97.22672284762776,14.129384661033953
1.845,97.60544209381678,13.94635908854081
1.85,97.943617927924,13.781442519649106
1.855,98.24472996896685,13.636914763641045
1.86,98.51270681781958,13.514339312328447
1.865,98.7531829690348,13.4149763799857
1.87,98.9651994903603,13.34044702484742
1.875,99.15017978662974,13.292123644929415
1.88,99.30705758907146,13.271536644091341
1.885,99.43503387392502,13.27987618745586
1.89,99.53176883734433,13.318887934041289
1.895,99.59643516274244,13.389770508958044
1.9,99.62662972660571,13.494287333801186
1.905,99.62145065799714,13.633633577204206
1.91,99.5784543228593,13.809584901129998
1.915,99.48295969783948,13.816594790368711
1.92,99.40342710140469,13.818621762667066
1.925,99.34170437382309,13.821721404788065
1.93,99.29600207252521,13.825198939953076
1.935,99.26316853382673,13.828059944732344
1.94,99.2392122584864,13.830888903485658
1.945,99.21927154861756,13.83360142472057
1.95,99.2030841468644,13.836033590794546
1.955,99.18955319939107,13.838602636526044
1.96,99.17674827062709,13.841203823415894
1.965,99.16374182427498,13.843689512785982
1.97,99.15080063647909,13.846366841830806
1.975,99.13791843982688,13.849247654533245
1.98,99.1249027633676,13.852190228543982
1.985,99.11223932138704,13.855338764184655
1.99,99.1000408185897,13.858675725384229
1.995,99.08777007633051,13.862172049196772
2.0,99.07484529887238,13.865711658247942
2.005,99.06228618315059,13.869527767333086
2.01,99.04841742055122,13.87349110512103
2.015,99.03549944505914,13.877588183197542
2.02,99.0226271444408,13.881657253844669
2.025,99.00975072141875,13.886045622777146
2.03,98.99737920224504,13.89032412512148
2.035,98.98634297039382,13.894570909873117
2.04,98.97499715961669,13.899019508935385
2.045,98.96521592108353,13.903314143015429
2.05,98.95654579491985,13.907364218894838
2.055,98.94811511925336,13.911577256562735
2.06,98.9408512718276,13.915566058121092
2.065,98.93494429545214,13.919188803823147
2.07,98.92973983782002,13.922918990237337
2.075,98.92575941697244,13.92626768896211
2.08,98.92328625563245,13.92912472309652
2.085,98.92194830460298,13.932011214296773
2.09,98.92151277038928,13.934446843642851
2.095,98.92214532831812,13.936734734648308
2.1,98.92437913429333,13.938321851004286
2.105,98.92708346508226,13.939860993453719
2.11,98.93123347980512,13.940652021563073
2.115,98.9368365489573,13.941113667353465
2.12,98.94217915467883,13.94136184285008
2.125,98.94866929035574,13.941019878139668
2.13,98.95567070148624,13.940327688056087
2.135,98.96378102788096,13.939011221091942
2.14,98.97211456431441,13.937346540125219
2.145,98.981413116943,13.935058646854703
2.15,98.99081106027127,13.932441303313512
2.155,99.00097983193088,13.9292163446508
2.16,99.0110511245989,13.925690017893682
2.165,99.02166657002233,13.921584901129997
2.17,99.03277924754617,13.916889204738233
2.175,99.04296823030909,13.912020915535757
2.18,99.05330154929705,13.906618147636145
2.185,99.06372427008348,13.900676323359264
2.19,99.07329809961531,13.89461848739469
2.195,99.08269193866037,13.888091517361394
2.2,99.09185124464689,13.881100040770761
2.205,99.10018427823769,13.874025443384635
2.21,99.1080881899911,13.866564794219311
2.215,99.11579008131365,13.85856283041492
2.22,99.12349915513187,13.850609087408282
2.225,99.13077167319568,13.842240159459745
2.23,99.13744790821798,13.833777720899413
2.235,99.14395120614093,13.82513756370446
2.24,99.1497269179351,13.816466178169117
2.245,99.15490474529244,13.807581752700818
2.25,99.15989589344983,13.798716852023563
2.255,99.16435862646756,13.78975109968489
2.26,99.16783568370555,13.780842102878626
2.265,99.17181770368337,13.771813375161122
2.27,99.17490877709385,13.76287816711564
2.275,99.17757270606167,13.754082803687247
2.28,99.18055068517783,13.745167867901614
2.285,99.18328979138636,13.736491589843222
2.29,99.18532235384531,13.728027953067755
2.295,99.18832595981598,13.719544578585888
2.3,99.19088196787959,13.711304720378454
2.305,99.19333522163393,13.70355154363606
2.31,99.19650369204095,13.695630979183862
