Time (s),Elbow Flexion Angle Z (deg) (Smoothed),Shoulder Angle Z (deg) (Smoothed)
0.005,86.57179652080143,-5.012831108613091
0.01,86.49259431337758,-5.054109682467404
0.015,86.42037851100827,-5.090614559860645
0.02,86.35493914693335,-5.122481851999691
0.025,86.29606625439268,-5.149847670091417
0.03,86.24354986662617,-5.172848125342701
0.035,86.19718001687366,-5.1916193289604164
0.04,86.15674673837503,-5.20629739215144
0.045,86.12204006437017,-5.2170184261226495
0.05,86.09285002809894,-5.223918542080918
0.055,86.06896666280119,-5.2271338512331225
0.06,86.05018000171683,-5.226800464786139
0.065,86.03628007808571,-5.223054493946845
0.07,86.0270569251477,-5.216032049922113
0.075,86.0223005761427,-5.205869243918821
0.08,86.02180106431055,-5.192702187143846
0.085,86.02534842289114,-5.176666990804062
0.09,86.03273268512433,-5.157899766106345
0.095,86.04374388425,-5.136536624257571
0.1,86.05817205350803,-5.112713676464618
0.105,86.07580722613828,-5.086567033934359
0.11,86.09643943538063,-5.058232807873672
0.115,86.11985871447494,-5.027847109489432
0.12,86.1458550966611,-4.995546049988515
0.125,86.17421861517897,-4.961465740577796
0.13,86.20473930326682,-4.925742292464061
0.135,86.23136923599463,-4.890570816779448
0.14,86.2634852114414,-4.854501123015151
0.145,86.29834862850636,-4.816097483748124
0.15,86.336750841467,-4.776412913995696
0.155,86.37693498380318,-4.735253912206302
0.16,86.41829596593189,-4.6926964329882
0.165,86.46025605789319,-4.648965620965278
0.17,86.50228951957973,-4.604324222519108
0.175,86.54306578178276,-4.558347720446582
0.18,86.58317380461452,-4.512296038641786
0.185,86.62119790935077,-4.465384422750146
0.19,86.65782673673075,-4.418784999886663
0.195,86.6927075539633,-4.3727152843778185
0.2,86.72535947812922,-4.326851661645708
0.205,86.75563825001532,-4.281410817685483
0.21,86.78344012321743,-4.236546286439023
0.215,86.80789714149644,-4.191904405988731
0.22,86.82915786087852,-4.147593666221126
0.225,86.84742607306906,-4.103965280527226
0.23,86.86278773924498,-4.061112117375173
0.235,86.87537311150709,-4.019121230605373
0.24,86.88533110602565,-3.9780694296585795
0.245,86.89282984665397,-3.938034283675659
0.25,86.89894809848302,-3.8998230172823094
0.255,86.9035103603689,-3.862976051779128
0.26,86.90666094362106,-3.827515813042125
0.265,86.9085796733771,-3.793495260368225
0.27,86.9094842057561,-3.7609603735078214
0.275,86.90962719200722,-3.729937536750478
0.28,86.9092802532317,-3.7004295041789588
0.285,86.90915901152749,-3.6730442671407477
0.29,86.90897424630063,-3.6467726791093096
0.295,86.90948143332636,-3.6223436483271865
0.3,86.91085567056845,-3.599459669754625
0.305,86.91292328704898,-3.5773280998436423
0.31,86.91515066932267,-3.5557497270605674
0.315,86.91952681600776,-3.5357569544043357
0.32,86.92619591836568,-3.517347663367166
0.325,86.93443526920035,-3.4996302765633884
0.33,86.94590376225796,-3.4833805832521025
0.335,86.96050580760439,-3.4685015515639552
0.34,86.97743625223508,-3.4541664730797317
0.345,86.99903536886286,-3.4420282090193908
0.35,87.02415415298027,-3.4312606287797482
0.355,87.05171386894216,-3.4207872470496974
0.36,87.08269252984046,-3.4111446392896125
0.365,87.11540307368062,-3.401359525923511
0.37,87.15101166051159,-3.3921821692449914
0.375,87.18745191510399,-3.382404554349977
0.38,87.2261350449597,-3.373103105846047
0.385,87.26464658542494,-3.362611663684277
0.39,87.30473901786964,-3.3527002509682475
0.395,87.34403714466751,-3.3416874219120967
0.4,87.38289676549698,-3.3302663577883345
0.405,87.42107867675205,-3.3185819019682707
0.41,87.45842835398142,-3.3067815837277674
0.415,87.49482104917273,-3.2950121755871526
0.42,87.52981157443942,-3.28359550431487
0.425,87.56384195791357,-3.2728211529139326
0.43,87.59595578155623,-3.262124453101933
0.435,87.62814168384166,-3.252844297945532
0.44,87.65909263403307,-3.2441825366372345
0.445,87.69087165734051,-3.2374769999319866
0.45,87.72186155971653,-3.2318549217422206
0.455,87.75437128813621,-3.2284596770028147
0.46,87.78640163536944,-3.2261374934878995
0.465,87.81927011030659,-3.2255465265350804
0.47,87.85405370223394,-3.2276892799383288
0.475,87.88998861129188,-3.2314188051823884
0.48,87.92716919975369,-3.23678083625897
0.485,87.96495212801933,-3.243522829282595
0.49,88.00416618949298,-3.251740219710464
0.495,88.0440339917082,-3.2611333654215784
0.5,88.08534095222826,-3.2717358023963676
0.505,88.12783890461678,-3.283424570205378
0.51,88.17056542163866,-3.2953535488911916
0.515,88.2140497406493,-3.308016278964353
0.52,88.258338476521,-3.3211479662052863
0.525,88.30348826247312,-3.334566989965733
0.53,88.34955177467045,-3.34812712858722
0.535,88.39710247117546,-3.36174238148083
0.54,88.44599325012854,-3.375597711386377
0.545,88.49506496409714,-3.38843043081377
0.55,88.54498306643242,-3.401020780991577
0.555,88.59578709143865,-3.413304856508576
0.56,88.64802158825626,-3.4259477073092732
0.565,88.70176128337957,-3.4386643054202155
0.57,88.75678895105042,-3.4513881872748438
0.575,88.81290603411007,-3.4641415443157735
0.58,88.86986242270322,-3.4770039407460427
0.585,88.92826554621678,-3.490922701986388
0.59,88.98686136265655,-3.5048642447166873
0.595,89.04521623366158,-3.519175143264786
0.6,89.10171696980508,-3.5329365398989108
0.605,89.15602614781591,-3.5468120496499806
0.61,89.20786926317525,-3.5607098588868826
0.615,89.25691283381106,-3.5750551043058043
0.62,89.30210879974459,-3.589996259484857
0.625,89.34359364877854,-3.605613292713243
0.63,89.38066250651033,-3.6219803522162883
0.635,89.41260596162823,-3.639399560352373
0.64,89.43945901379249,-3.6577240750639173
0.645,89.4608256427082,-3.6771037670161704
0.65,89.47640620398933,-3.6975912054632465
0.655,89.48602092912465,-3.71923059412437
0.66,89.48954479829496,-3.742007056105389
0.665,89.48694874175915,-3.7659008627601263
0.67,89.4782477655196,-3.790845383134313
0.675,89.46400426283549,-3.8165786833223128
0.68,89.44400009739573,-3.8428062495186013
0.685,89.41965453577488,-3.870208518652669
0.69,89.38884025685576,-3.89716217037751
0.695,89.35422590318976,-3.9251005696617516
0.7,89.31385621871217,-3.952368655462109
0.705,89.26963236539729,-3.979659434415199
0.71,89.2195014632251,-4.0056731273640755
0.715,89.16574472354809,-4.031447777073016
0.72,89.10755778386657,-4.056342530974576
0.725,89.0439538177518,-4.079055891186585
0.73,88.97572439013172,-4.100431790527453
0.735,88.90291892001913,-4.12031021948394
0.74,88.82643138689266,-4.138854089333768
0.745,88.74565282112675,-4.15587870891745
0.75,88.66162823166833,-4.171618463158768
0.755,88.57371704228692,-4.1859141733673795
0.76,88.48220667285614,-4.19872966363896
0.765,88.38769641894326,-4.210345160705711
0.77,88.29085500690674,-4.220807962354673
0.775,88.19259064984315,-4.230983238351863
0.78,88.09182876169169,-4.239738559423688
0.785,87.98988074248398,-4.247813456476849
0.79,87.88616137171682,-4.255019079027757
0.795,87.78064921968618,-4.260726918616421
0.8,87.67460423338979,-4.266002020430731
0.805,87.56761094022347,-4.270035308840436
0.81,87.45978894878539,-4.272778258397617
0.815,87.3521055335325,-4.275028860676264
0.82,87.24359526376422,-4.27572262791901
0.825,87.13515416430556,-4.275554824571256
0.83,87.02607359622928,-4.273809778703853
0.835,86.9177583727814,-4.271622304015864
0.84,86.80840540895436,-4.266844915853052
0.845,86.69894153887802,-4.260857668350278
0.85,86.58925852454024,-4.25324700083799
0.855,86.47934488210214,-4.243816325851014
0.86,86.36889432150053,-4.231800068178134
0.865,86.25826196516178,-4.21763923622271
0.87,86.14718202450626,-4.201464476658508
0.875,86.03679430338006,-4.182989950848185
0.88,85.92657206505079,-4.162430009966171
0.885,85.81672127567843,-4.139719593648701
0.89,85.70779389113972,-4.1147088260208955
0.895,85.59951962218686,-4.087585591519549
0.9,85.49232835171638,-4.058750440553502
0.905,85.38629052073495,-4.027889791841188
0.91,85.28155905229853,-3.9949593977212765
0.915,85.17830325941536,-3.9599960984392997
0.92,85.0761095517436,-3.9227022981267234
0.925,84.97595504088264,-3.883665079616678
0.93,84.8776457745346,-3.8426014756845395
0.935,84.7815355636578,-3.8002316204216804
0.94,84.6876228838689,-3.7564827450224656
0.945,84.59664748691766,-3.7118701571948822
0.95,84.50787431425238,-3.6660392960202244
0.955,84.42149950621595,-3.6192823731001145
0.96,84.33767500735983,-3.5718411991210894
0.965,84.25655847470902,-3.5239353976306824
0.97,84.17774279371963,-3.4753955604882796
0.975,84.10181540465081,-3.4267775886202876
0.98,84.02910923010552,-3.378351834016561
0.985,83.95990564905046,-3.3303028498946117
0.99,83.8944602346583,-3.2827670465921592
0.995,83.83300839882963,-3.2358341851456944
1.0,83.77577576388884,-3.1895463068245555
1.005,83.72289136333619,-3.143867481030088
1.01,83.67458501211644,-3.098777538109524
1.015,83.63106343291875,-3.054208183424254
1.02,83.59329828082016,-3.0107032227229937
1.025,83.56078000634056,-2.9676925583817866
1.03,83.53286115880154,-2.924161963351322
1.035,83.51095414392012,-2.8810744900223693
1.04,83.49410169426099,-2.8375606681917507
1.045,83.48238210151825,-2.793482248068986
1.05,83.4759480237362,-2.748851984642861
1.055,83.47494531472806,-2.7036894022514146
1.06,83.47950843280547,-2.6580074411650947
1.065,83.48974043806041,-2.6118238818545785
1.07,83.50468178667535,-2.564280147908171
1.075,83.52535389929398,-2.516335501596817
1.08,83.55095767287888,-2.467286378400369
1.085,83.58229969874581,-2.41787073025432
1.09,83.61796434120659,-2.3668988842328935
1.095,83.65850528890641,-2.3154410072707887
1.1,83.7036040046191,-2.263237303449638
1.105,83.75321566060227,-2.21062914086385
1.11,83.80724725588188,-2.157903634057355
1.115,83.86644550952296,-2.1059647514099575
1.12,83.93004085936101,-2.054920592765369
1.125,83.99835698430155,-2.0049118068359038
1.13,84.07061787582796,-1.9563668703707522
1.135,84.14676615098708,-1.9095539808375814
1.14,84.2265752814317,-1.8648026480780633
1.145,84.30980035787739,-1.8224097467665963
1.15,84.39616845455001,-1.7826351167636525
1.155,84.48517975265415,-1.7452190287435394
1.16,84.57658675394525,-1.710553207773643
1.165,84.67007929964277,-1.678821938888731
1.17,84.7653083625887,-1.6501160950417586
1.175,84.86261539559058,-1.6249145914969447
1.18,84.96091857346549,-1.602775847697539
1.185,85.06021449862801,-1.5841119132935888
1.19,85.15998017621979,-1.5682691053024682
1.195,85.26005288681347,-1.5553012260753059
1.2,85.36024536455929,-1.5450939837821625
1.205,85.46031430156806,-1.5373630344967877
1.21,85.56019913021647,-1.531981808874464
1.215,85.65983556139273,-1.5287544361140393
1.22,85.75919857980763,-1.5274733996239713
1.225,85.85899446193406,-1.5283892267095223
1.23,85.95902558834689,-1.5310338521823528
1.235,86.0592866112466,-1.5351253142766246
1.24,86.15981407959245,-1.5404126958707713
1.245,86.26065251307905,-1.5466438102787987
1.25,86.36185472830476,-1.5535607173435113
1.255,86.46411377154469,-1.561340561054581
1.26,86.56634421617537,-1.5688614480508885
1.265,86.66887881492055,-1.576179385263509
1.27,86.77182080681165,-1.5830940517338707
1.275,86.87523245373455,-1.5893642707648796
1.28,86.97915084826218,-1.5947568098937381
1.285,87.08425698883158,-1.5995003150693934
1.29,87.19000758114399,-1.6029177059502737
1.295,87.2956530091265,-1.6044038048426605
1.3,87.40238477428538,-1.6047027225984427
1.305,87.50924150490218,-1.6030339910303437
1.31,87.61674596706439,-1.599775213708094
1.315,87.72521763799692,-1.5951099678361607
1.32,87.83495375206518,-1.5892172040136503
1.325,87.9462459715945,-1.5823071673197278
1.33,88.05931623366159,-1.5746067442070868
1.335,88.17446294140129,-1.566418047520865
1.34,88.29193225214445,-1.558053283653054
1.345,88.41266032299544,-1.550408426011884
1.35,88.53605628666391,-1.5432648977326484
1.355,88.66132357471119,-1.5360284185371968
1.36,88.78995100455107,-1.5303904090692586
1.365,88.92077236403826,-1.5257044506104038
1.37,89.05463428616561,-1.5231754216403253
1.375,89.19080317107804,-1.522154344379232
1.38,89.32924089786687,-1.5229808117963874
1.385,89.46994025685574,-1.525951091530923
1.39,89.61281868671826,-1.5312265156628395
1.395,89.75770780764964,-1.538862692020175
1.4,89.90438399510576,-1.5487616885999387
1.405,90.05166898230819,-1.5603292815239003
1.41,90.19923205961457,-1.5735784638383354
1.415,90.34705702507244,-1.5887345353235331
1.42,90.49611533443394,-1.6065998255905831
1.425,90.64446913633203,-1.6255899526602784
1.43,90.7926180343818,-1.646709124781957
1.435,90.94087948990742,-1.669889925479594
1.44,91.0885765974297,-1.694757116355944
1.445,91.23541750209343,-1.7212777088948459
1.45,91.38116824616463,-1.7493996400824146
1.455,91.52586714987706,-1.77951460531379
1.46,91.66918915943559,-1.811169139504824
1.465,91.81097349656667,-1.8442042866202732
1.47,91.95111540012054,-1.8785238983895085
1.475,92.08878705293262,-1.9135367876961742
1.48,92.22506621667358,-1.949992648757579
1.485,92.35899115721583,-1.9871112152030246
1.49,92.49160141792389,-2.025523810958307
1.495,92.62182165620787,-2.0643342252372254
1.5,92.75073859883399,-2.1042021504450434
1.505,92.87721372397837,-2.1441764540532784
1.51,93.00089530227005,-2.183941106027275
1.515,93.12300267276544,-2.2243405764569557
1.52,93.24348359419061,-2.265109908038644
1.525,93.362439713242,-2.306196932659812
1.53,93.47999485605384,-2.3476216505469667
1.535,93.5963018799955,-2.389456424834039
1.54,93.71073241296341,-2.431276129923621
1.545,93.82386136492153,-2.4736258098710704
1.55,93.93674341434505,-2.5172455727196055
1.555,94.0484583184199,-2.561535680762822
1.56,94.1602372647154,-2.607474686855824
1.565,94.27199384810348,-2.6550252741850944
1.57,94.38375482796711,-2.7043100647805773
1.575,94.49552087476319,-2.7554567654985993
1.58,94.60797141950938,-2.808931046456265
1.585,94.7206751455281,-2.8645376934924363
1.59,94.83322584429817,-2.9221168520237724
1.595,94.94527916826925,-2.98157358037549
1.6,95.05562274570025,-3.042116103422442
1.605,95.16343336428729,-3.1030698271760944
1.61,95.27119542684815,-3.16710726245209
1.615,95.37576720876848,-3.231244130557822
1.62,95.47961945683751,-3.297767971414918
1.625,95.5800576955292,-3.3638925826178885
1.63,95.67806941266889,-3.4309227683525587
1.635,95.77357218736368,-3.498673424313054
1.64,95.86630627647102,-3.566804366350245
1.645,95.95598263833651,-3.634999394323698
1.65,96.04230391854671,-3.70298790459573
1.655,96.12496621440845,-3.7706400953588264
1.66,96.20476343744862,-3.838446505017028
1.665,96.28184856508457,-3.9064160212008585
1.67,96.35606922919926,-3.9743136705247375
1.675,96.4260041767632,-4.041113824775115
1.68,96.49323286370968,-4.108304397608022
1.685,96.55711901062126,-4.17489500758786
1.69,96.61697692359778,-4.240771453033962
1.695,96.67311530725311,-4.306189677682311
1.7,96.72558318195016,-4.371129196810716
1.705,96.77443082515839,-4.4355943215021005
1.71,96.8196487621445,-4.499502807538024
1.715,96.86121218373957,-4.56270146390623
1.72,96.89913434505692,-4.625120488119688
1.725,96.9334489524093,-4.686708851163018
1.73,96.96510514167744,-4.7480224532831095
1.735,96.99311892228403,-4.808202762463384
1.74,97.01852559740692,-4.86787381163777
1.745,97.04105504994263,-4.926576055629705
1.75,97.06145969330943,-4.984763830211234
1.755,97.07851632652876,-5.041486012820126
1.76,97.09334650614777,-5.0975161145211825
1.765,97.10573129402518,-5.1526259228973625
1.77,97.11570414505239,-5.206767459058995
1.775,97.1233081972393,-5.2599565840674884
1.78,97.12860335681255,-5.312225766608428
1.785,97.13163813449724,-5.3636129128631564
1.79,97.13244774286888,-5.414155496840142
1.795,97.13104626605173,-5.463884943486724
1.8,97.1274246664685,-5.512819946771056
1.805,97.1215611112351,-5.560956787469598
1.81,97.11341152007786,-5.608266837527357
1.815,97.1029183605499,-5.654693530997196
1.82,97.09000556977321,-5.700156307730531
1.825,97.07460031484106,-5.744555022537206
1.83,97.0566265192851,-5.787775595823125
1.835,97.0351416000344,-5.8292471677726585
1.84,97.01023665768008,-5.86899764705871
1.845,96.9819479512541,-5.9069994443814124
1.85,96.95029240526213,-5.943163564520034
1.855,96.91527958277464,-5.977379348569502
1.86,96.87822607986405,-6.010686588597588
1.865,96.83750940677973,-6.041277291218258
1.87,96.79468526580257,-6.07056784004156
1.875,96.74826437744724,-6.0969441971504414
1.88,96.69927549887696,-6.1215461888150315
1.885,96.64814399646465,-6.144056334911205
1.89,96.59524241998501,-6.16516309180264
1.895,96.54013106072433,-6.18397762101055
1.9,96.48339262723772,-6.201486262429381
1.905,96.42460825386576,-6.216866014405642
1.91,96.36402538449155,-6.230612924641434
1.915,96.30180920745474,-6.242929382545351
1.92,96.2384164511069,-6.254456542163916
1.925,96.17331995741509,-6.264270327527116
1.93,96.10671342046066,-6.2728063958412354
1.935,96.03866498674756,-6.2802290174181685
1.94,95.96919946317966,-6.286627285329106
1.945,95.89833147749482,-6.292064248340725
1.95,95.82606473985638,-6.296587756007941
1.955,95.75240786427595,-6.30023462547271
1.96,95.67736726086477,-6.303032378309694
1.965,95.6007108722716,-6.30444975310867
1.97,95.52259454574099,-6.304805910666032
1.975,95.44309023307255,-6.304201344311188
1.98,95.36224994676932,-6.3026841380324505
1.985,95.28011764026184,-6.300294228408223
1.99,95.19672943441347,-6.297080174862277
1.995,95.11212558608167,-6.293106820312911
2.0,95.02549021721713,-6.288026507508543
2.005,94.9370043466425,-6.282096749869639
2.01,94.84675779066161,-6.275510739540979
2.015,94.75478444811704,-6.268413567238095
2.02,94.66108850030398,-6.260930917574457
2.025,94.56564212552766,-6.253181609322855
2.03,94.46841530951824,-6.245276961199455
2.035,94.36884008018119,-6.237038101202625
2.04,94.26779538607715,-6.229091129357284
2.045,94.16499035312057,-6.221328797934149
2.05,94.06031640354075,-6.21378237695066
2.055,93.95369190241956,-6.2065042327118345
2.06,93.845061344536,-6.199546125166928
2.065,93.73438668599337,-6.1929499413349065
2.07,93.62164316292375,-6.186743004597947
2.075,93.50682432444498,-6.18093805680751
2.08,93.3899288862697,-6.175534523545149
2.085,93.27097389068658,-6.170521503091685
2.09,93.14997372760247,-6.1658775233865954
2.095,93.02695780425199,-6.1615692810708005
2.1,92.90195880314212,-6.157550770119249
2.105,92.77500802283001,-6.153768156470018
2.11,92.64614250605725,-6.150161612493935
2.115,92.514805796279,-6.146255114272006
2.12,92.38151843982698,-6.142380109175627
2.125,92.24649333620063,-6.138630267050099
2.13,92.11050704885551,-6.135400245532058
2.135,91.9731192461873,-6.132191256879993
2.14,91.83494593308845,-6.129787181362994
2.145,91.69452002536688,-6.12648284445842
2.15,91.55340914176816,-6.123937233459304
2.155,91.41078210151811,-6.120763544587529
2.16,91.26702560646726,-6.117692487938454
2.165,91.12198641645165,-6.114313235180747
2.17,90.97558035062909,-6.110439075856641
2.175,90.82734268273174,-6.10531226030023
2.18,90.67810594803785,-6.100300865025139
2.185,90.52753142992873,-6.0946212186005315
2.19,90.3754946295482,-6.087985278941649
2.195,90.22122530974481,-6.079568249110849
2.2,90.06592125076274,-6.070445359351171
2.205,89.90914015719324,-6.059983041291873
2.21,89.75111397766482,-6.048788177082037
2.215,89.59181976262032,-6.036716492785677
2.22,89.43114942127625,-6.023579808602571
2.225,89.26903755237772,-6.0092585136695025
2.23,89.10629931368602,-5.9943126213503115
2.235,88.94181626084224,-5.977887324967608
2.24,88.77567871299291,-5.960077774128404
2.245,88.60830244399477,-5.941219902149426
2.25,88.43986818047803,-5.921330935468414
2.255,88.27082909918518,-5.900918613785023
2.26,88.10113807107578,-5.879546163899409
2.265,87.9308773267781,-5.857075799225239
2.27,87.76017941289555,-5.833452153842558
2.275,87.58977973000351,-5.808967749212782
2.28,87.41888561462153,-5.782982618632248
