Time (s),Elbow Flexion Angle Z (deg) (Smoothed),Shoulder Angle Z (deg) (Smoothed)
0.005,97.49273773142212,3.123100751871139
0.01,97.49740009157279,3.091812513162013
0.015,97.49990532876006,3.0619318432034635
0.02,97.50035052882721,3.0334203001258553
0.025,97.4988327776174,3.006239442059552
0.03,97.49544916097385,2.9803508271349175
0.035,97.49029676473975,2.9557160134823155
0.04,97.48347267475835,2.9322965592321104
0.045,97.4750739768728,2.9100540225146663
0.05,97.46519775692636,2.888949961460346
0.055,97.45394110076221,2.8689459341995143
0.06,97.44140109422355,2.850003498862535
0.065,97.42767482315361,2.8320842135797717
0.07,97.41285937339556,2.8151496364815882
0.075,97.39705183079265,2.799161325698349
0.08,97.38034928118807,2.784080839360418
0.085,97.36284881042502,2.7698697355981583
0.09,97.34464750434671,2.756489572541934
0.095,97.32584244879634,2.7439019083221097
0.1,97.30653072961714,2.7320683010690487
0.105,97.28680943265229,2.7209503089131153
0.11,97.266775643745,2.7105094899846733
0.115,97.2465264487385,2.700707402414086
0.12,97.22615893347599,2.6915056043317183
0.125,97.20577018380067,2.682865653867933
0.13,97.18545728555387,2.674749109153044
0.135,97.16492747966925,2.6636732145687954
0.14,97.14470144283943,2.6538135126502924
0.145,97.12587350336176,2.6441166182698987
0.15,97.10767533126271,2.635397916827057
0.155,97.09077709574208,2.6270569849826217
0.16,97.07474798749503,2.619563706086158
0.165,97.05996004439325,2.6125814899544224
0.17,97.0461707739681,2.6063734324672767
0.175,97.03359002242222,2.6007492887720627
0.18,97.02206978866832,2.5958571455751613
0.185,97.01172591224983,2.591590817005998
0.19,97.00247924528117,2.5880357081700116
0.195,96.99410500124394,2.584361518041129
0.2,96.98651354050867,2.580942836530789
0.205,96.97986873315179,2.577728871095559
0.21,96.9738212983288,2.575228196561594
0.215,96.96867849328225,2.573038972117099
0.22,96.96409350381474,2.5716865931277684
0.225,96.960343056466,2.570713754784884
0.23,96.95701500147042,2.5707607529048864
0.235,96.9544226664232,2.5712639405195548
0.24,96.9521903803012,2.572869503046452
0.245,96.95061064123577,2.5749857072639886
0.25,96.949354904979,2.5782531554508097
0.255,96.94868639380094,2.5820752417947817
0.26,96.94836505696432,2.587051800267227
0.265,96.94845120161087,2.5932476769575254
0.27,96.94891188248697,2.6005205103172844
0.275,96.94975881899744,2.608851712609522
0.28,96.95098688531833,2.6181899959228474
0.285,96.95258840517154,2.6285228093501045
0.29,96.95548280821576,2.6385002253731176
0.295,96.95876788375541,2.649321987813943
0.3,96.96219505537879,2.661836112482678
0.305,96.966043135743,2.675117980928169
0.31,96.97081911481389,2.6890095229789517
0.315,96.97572613422541,2.7043463174703324
0.32,96.98009266347862,2.7216484097034517
0.325,96.98610212009146,2.738511406826829
0.33,96.9927529638252,2.756592209789524
0.335,96.99969095109556,2.7758538204715313
0.34,97.00669071099954,2.7962423742326585
0.345,97.01361054610338,2.8176908974155164
0.35,97.01954105415565,2.840611943645328
0.355,97.02509733176105,2.864238997485732
0.36,97.03024276653872,2.888991123241694
0.365,97.03508497814036,2.9143452451923606
0.37,97.04054904754167,2.9398704344378697
0.375,97.04525196946517,2.9668765365013363
0.38,97.04926150988511,2.994801652358999
0.385,97.05285343948714,3.023441740696221
0.39,97.0561828014206,3.0532241588710374
0.395,97.05870418355835,3.0839947815351967
0.4,97.06065166821259,3.1155843337334335
0.405,97.06289531812538,3.147832080228258
0.41,97.06494090692695,3.1809056094135153
0.415,97.06648663389699,3.214842472989134
0.42,97.06734048109625,3.249589774173758
0.425,97.0673623841971,3.2850351253708396
0.43,97.06646050872992,3.3210240005435505
0.435,97.06457496658854,3.3573632655325634
0.44,97.06098504156193,3.393905894131173
0.445,97.05583945729049,3.4304197288726157
0.45,97.05028637568047,3.465914978595145
0.455,97.04340047566009,3.501018154658023
0.46,97.0359606151876,3.5349882726674897
0.465,97.02722822260795,3.5681511712608884
0.47,97.01807891005272,3.6002880264557966
0.475,97.00833036988195,3.6308305277582034
0.48,96.99789569412485,3.6594398446170224
0.485,96.98674996941986,3.6858364259665426
0.49,96.97597797005409,3.7087708283312613
0.495,96.96407262451964,3.7291217339010365
0.5,96.95165328999337,3.746499655031752
0.505,96.93848806088289,3.761156534915781
0.51,96.9248917483956,3.772779689913629
0.515,96.91083285464943,3.781401059593576
0.52,96.89648153751881,3.7868526698225735
0.525,96.88187934267862,3.789123922852087
0.53,96.86714880971071,3.788138999977277
0.535,96.85191408865246,3.7841526494370603
0.54,96.8369179936107,3.7772222385557277
0.545,96.82139586173908,3.7678496914991686
0.55,96.80535913837046,3.7561428100296
0.555,96.78966120636747,3.740914464653714
0.56,96.77366243855847,3.7234909809961003
0.565,96.75721854854964,3.70393187478758
0.57,96.74028187274725,3.6811891145891615
0.575,96.72408174816913,3.6549461238079437
0.58,96.70640536818314,3.6280598353302893
0.585,96.68803072323082,3.599340267729664
0.59,96.66918312532374,3.568983141180932
0.595,96.65004620942531,3.5371313669618107
0.6,96.63070225825994,3.5039711735259473
0.605,96.6121929760565,3.4690923758181853
0.61,96.59406928129556,3.4333355065799247
0.615,96.57642836304149,3.3964066271036066
0.62,96.55918003125592,3.358996134000706
0.625,96.54118513216423,3.3219126843189466
0.63,96.52364859226523,3.2840932655325648
0.635,96.50657037078797,3.24619735237485
0.64,96.48966960293367,3.2086747833472398
0.645,96.47270347233047,3.171292317606227
0.65,96.45619382998296,3.1343257974132444
0.655,96.43994743935126,3.0980916337855304
0.66,96.42290822668505,3.062931337742586
0.665,96.40527419420413,3.02881616254043
0.67,96.38715391288405,2.9957498061110663
0.675,96.3686312192783,2.9637530363088063
0.68,96.34978289202289,2.932847243425616
0.685,96.33068298489023,2.903047806292273
0.69,96.3114107975247,2.874366729937203
0.695,96.29287139006362,2.846725471924564
0.7,96.27525704092773,2.8200895225259375
0.705,96.2575482887476,2.795318664748865
0.71,96.24076232530564,2.771637988855866
0.715,96.22425345081245,2.749559841898971
0.72,96.20890530702664,2.7285017008312233
0.725,96.19397713424807,2.7082802206164964
0.73,96.17965657659106,2.6890853564066624
0.735,96.16609503272824,2.6709406729483733
0.74,96.15340328886086,2.6538328829644553
0.745,96.14037471516724,2.638952731205639
0.75,96.12846094362091,2.625404013454388
0.755,96.11717311830209,2.6134271444426322
0.76,96.10682889079976,2.6026092214998706
0.765,96.0972036399447,2.5930747375931005
0.77,96.08839712790592,2.584631335251032
0.775,96.08030347686062,2.5772950146095686
0.78,96.07293657160793,2.570952639017822
0.785,96.06623389657565,2.565575436816187
0.79,96.06072161090668,2.5607745008946483
0.795,96.05579632154564,2.556293394867332
0.8,96.05107027565559,2.5532620217897986
0.805,96.04723997598856,2.5508228483090867
0.81,96.04376274887132,2.549296249065615
0.815,96.04103585358489,2.5482742558154845
0.82,96.03855927200884,2.5480694486850854
0.825,96.037126394707,2.549148181385713
0.83,96.0365180932732,2.551305970463608
0.835,96.03674999660059,2.5543462035379703
0.84,96.037710292417,2.5581807250446857
0.845,96.03935743051751,2.5626985324695424
0.85,96.04160239416338,2.567845246777907
0.855,96.04439925932452,2.5735415921084925
0.86,96.0476908922041,2.579737187705221
0.865,96.05144683911115,2.5863637393824956
0.87,96.05562707875421,2.5933689850279236
0.875,96.06021550204802,2.600691125506757
0.88,96.06518604498218,2.608275360030755
0.885,96.0705219665206,2.616060379623497
0.89,96.07619925479443,2.6239844825476855
0.895,96.08219480848759,2.631974973159025
0.9,96.0884796122204,2.6399549607012114
0.905,96.0950193028136,2.6478335058551217
0.91,96.10177586808126,2.6555143346394656
0.915,96.10870990056215,2.6628866012819707
0.92,96.11577310471176,2.6698346356655356
0.925,96.12292491109469,2.6762308120228715
0.93,96.13012491562479,2.6819462438559816
0.935,96.1373365059213,2.686849042333863
0.94,96.14453104260387,2.6908142465287486
0.945,96.15168231669843,2.6937219223537956
0.95,96.15877010804137,2.6954649477903856
0.955,96.16588227819244,2.6960041421096226
0.96,96.17311555187928,2.6950399060000843
0.965,96.17963378332281,2.69335503069147
0.97,96.18655297515049,2.6895903784909674
0.975,96.1928267412607,2.6847185023442823
0.98,96.19969324786335,2.677471218600596
0.985,96.20678362137123,2.6682476386780616
0.99,96.21292500622707,2.657932975605285
0.995,96.21875724251782,2.646007261772583
1.0,96.2242790550164,2.632292674579215
1.005,96.22966869691088,2.616546791546757
1.01,96.23594304061064,2.5979144644272307
1.015,96.24158651158392,2.5775074459217158
1.02,96.24678392488887,2.555015608054493
1.025,96.25151654850436,2.530313772452329
1.03,96.25568036421933,2.5033521930281064
1.035,96.25916563455387,2.4741035083466874
1.04,96.26247920904027,2.442251190876304
1.045,96.26440702846993,2.4084087005367723
1.05,96.2658544904736,2.3719301796189716
1.055,96.26615297741552,2.3332118447756014
1.06,96.26519598405214,2.2922239953339387
1.065,96.2629227094593,2.248956282543163
1.07,96.25931268658222,2.2034215212348665
1.075,96.2537257627561,2.15606775990392
1.08,96.247272558833,2.106289111078353
1.085,96.23953913338735,2.054945675598502
1.09,96.23092214999023,2.0016006160954563
1.095,96.22170430134133,1.9461944694148983
1.1,96.21214831819336,1.8887799299009809
1.105,96.20252679109196,1.8294352114475632
1.11,96.1931047090516,1.768239235275963
1.115,96.1841418899617,1.7052526869736249
1.12,96.17531789847828,1.6407134155745
1.125,96.16777619198437,1.5742435709347586
1.13,96.16090209064572,1.5062242638609873
1.135,96.15575891865996,1.436217955609386
1.14,96.15157877867945,1.3646015522933441
1.145,96.14935561167678,1.2908932490022178
1.15,96.14818910507414,1.2155003113365868
1.155,96.14842952275066,1.1381671632018626
1.16,96.15007718860944,1.0588901821830414
1.165,96.15308557838046,0.9776981979251888
1.17,96.15735606695326,0.8946518086298498
1.175,96.16275347346301,0.8098378547690619
1.18,96.16911711929872,0.7233744581575888
1.185,96.17626153933087,0.6354063230922435
1.19,96.18451310788281,0.5459173538517188
1.195,96.19270364447483,0.45553006396973017
1.2,96.201390212687,0.36409635111100347
1.205,96.20946858139298,0.27225222877527844
1.21,96.2173204511975,0.1798670783754977
1.215,96.22372730072976,0.08780645066026245
1.22,96.23001595279437,-0.004902097460871012
1.225,96.23455329905362,-0.09654037893949848
1.23,96.23801203424581,-0.18781714935332255
1.235,96.23876217354682,-0.2771769313415879
1.24,96.23661276359417,-0.3645647347572921
1.245,96.2324783324632,-0.4506789341955563
1.25,96.22561477043463,-0.5349342101700956
1.255,96.21582790776503,-0.6170057095698538
1.26,96.2027351151763,-0.6964622921651545
1.265,96.18486442501344,-0.772059965566589
1.27,96.16334110625198,-0.8445761736573711
1.275,96.13783441980381,-0.9135413547260237
1.28,96.1076400099644,-0.9783022412013673
1.285,96.07325540782168,-1.0391429801762015
1.29,96.03466643638404,-1.0956478016444102
1.295,95.99116165258373,-1.1471594636752593
1.3,95.94431560171054,-1.1941757438401546
1.305,95.89225695032546,-1.2355127730367381
1.31,95.83645349384852,-1.2719947927880342
1.315,95.77611476363947,-1.3029875224761351
1.32,95.71196223696843,-1.3292103953384873
1.325,95.6441063829287,-1.3502696318330847
1.33,95.57357369589162,-1.3666539351695135
1.335,95.49967332215722,-1.3778886376089792
1.34,95.42320148361048,-1.3850707587215751
1.345,95.34425910439464,-1.388122388294159
1.35,95.26303149108517,-1.3872693881174845
1.355,95.18036175224624,-1.3832887417608286
1.36,95.09586605358943,-1.3761032867561853
1.365,95.00904751183309,-1.3657624586060575
1.37,94.92018328387778,-1.352389858365962
1.375,94.83110170105597,-1.3379242901764223
1.38,94.74061317583454,-1.3216972097895507
1.385,94.64927483974542,-1.3047121339101428
1.39,94.55686451108562,-1.2863923951165124
1.395,94.46436587691498,-1.2678422107182252
1.4,94.37084318104421,-1.2488965478719551
1.405,94.27727707535664,-1.230228691227411
1.41,94.18341196629417,-1.2117496625744406
1.415,94.08927722258537,-1.1935477756913857
1.42,93.99486680105827,-1.175658331785522
1.425,93.90020636480827,-1.158111258782736
1.43,93.80530213141681,-1.1409040502615921
1.435,93.71016648621531,-1.1240214741896541
1.44,93.61479480395752,-1.1074224446759624
1.445,93.5185391650982,-1.0908155924935803
1.45,93.42228281501102,-1.0745431840358581
1.455,93.32519171894995,-1.0581420147001994
1.46,93.22808421934633,-1.041898529570299
1.465,93.1292315024105,-1.0251040212688654
1.47,93.02961874560968,-1.0079870099209303
1.475,92.92929307118897,-0.9909165086864744
1.48,92.82851444879661,-0.9736275827085366
1.485,92.7280764366106,-0.956260837391542
1.49,92.62793257831257,-0.9384620394799249
1.495,92.5280016172489,-0.92010681301953
1.5,92.42734685949675,-0.9003883549570599
1.505,92.3274851117788,-0.8803510222201919
1.51,92.22796629595058,-0.8600861625404714
1.515,92.12898571428396,-0.8389525122426168
1.52,92.03096081451274,-0.8173064434301865
1.525,91.93414515617391,-0.7952452844231881
1.53,91.83931244648628,-0.7731839055244591
1.535,91.74635601032688,-0.750989698543554
1.54,91.65565439987141,-0.7286041267752246
1.545,91.56638421481625,-0.7057099995243244
1.55,91.47942237423095,-0.6829997451810782
1.555,91.39383185575943,-0.6603498026229234
1.56,91.31036341706317,-0.6382237163922049
1.565,91.22796256087163,-0.6161677445468635
1.57,91.14745351196908,-0.5948851455072481
1.575,91.06827773675332,-0.5737305762984328
1.58,90.99044192393765,-0.5531318504382778
1.585,90.91390717796378,-0.533257258576628
1.59,90.83807548075657,-0.513944589100536
1.595,90.76409386848906,-0.49618558877210317
1.6,90.69102588506928,-0.47913062040588905
1.605,90.61958080364047,-0.46287012467778677
1.61,90.548237405149,-0.446446570157866
1.615,90.47822825431886,-0.43041545881899107
1.62,90.41002731205518,-0.41491195061948505
1.625,90.34376105007868,-0.4003266451425777
1.63,90.2784931663214,-0.38530035712925936
1.635,90.21466396294196,-0.3703121208271917
1.64,90.15283334616691,-0.3549924911300302
1.645,90.09258689664372,-0.33975706898003827
1.65,90.0339625065103,-0.3241511033069769
1.655,89.977091082469,-0.30799950600013
1.66,89.92150365353515,-0.2908023438107262
1.665,89.867706788374,-0.27274719638949396
1.67,89.81592344107283,-0.2537709718204214
1.675,89.76635462637711,-0.23380799751749307
1.68,89.71915060590102,-0.2127843602097402
1.685,89.67445301592161,-0.19065150142471712
1.69,89.6323732406153,-0.16736423721714774
1.695,89.59302148406363,-0.14289382994858044
1.7,89.5564860291269,-0.11721970997983873
1.705,89.5228558495079,-0.09033579407007912
1.71,89.49221056875409,-0.06224936831864698
1.715,89.46463674828252,-0.03297777644793701
1.72,89.44136664703446,-0.0028853535051755834
1.725,89.42265490950926,0.027849980330244804
1.73,89.408518516839,0.059863199304626385
1.735,89.39837510022707,0.09310090075879232
1.74,89.39219493759595,0.1276192764071642
1.745,89.38937442750515,0.16337423591927028
1.75,89.39073781285927,0.20005927758499245
1.755,89.3969020317544,0.2369115841717774
1.76,89.40735085052717,0.2745976681487637
1.765,89.42204966137227,0.31346825537610673
1.77,89.44178527939306,0.35257905832747516
1.775,89.46571441708588,0.39233901043284486
1.78,89.49397613535808,0.4326181903576442
1.785,89.52626550091563,0.4736581910937869
1.79,89.562261419283,0.5156739742712081
1.795,89.60232677297161,0.5576073106661426
1.8,89.64629678135232,0.5994744059231125
1.805,89.69330338399341,0.6416725778975618
1.81,89.7434477383389,0.6840058679041296
1.815,89.79663940972442,0.7262725901288678
1.82,89.8527722553155,0.7683301558834706
1.825,89.91172820901777,0.8100484222654944
1.83,89.9733836394918,0.8512944171351398
1.835,90.0376156628672,0.8919244643389259
1.84,90.10430845545592,0.9317751068540444
1.845,90.17402523273287,0.9703785789553372
1.85,90.24550372828203,1.0086093115087351
1.855,90.3192017146464,1.0461833696436864
1.86,90.39515038166037,1.0822304892749346
1.865,90.47360386871556,1.115999596525381
1.87,90.55373204828928,1.1478740961969471
1.875,90.63538420575604,1.1781971751568325
1.88,90.71913150241055,1.205693462751115
1.885,90.80477559400944,1.2306435959591147
1.89,90.89223686380038,1.253070474597362
1.895,90.98146007836922,1.2729550160365788
1.9,91.07240674080779,1.2902964166119029
1.905,91.16504660354533,1.3051253674375158
1.91,91.25936276925691,1.3175035462411124
1.915,91.3559918231426,1.3271488695553437
1.92,91.45471721443118,1.3343883136197618
1.925,91.55548522050154,1.3393973499286251
1.93,91.65826657681765,1.342339560420369
1.935,91.76303573353694,1.343395445921739
1.94,91.86977535391341,1.3427674755939856
1.945,91.9790764637913,1.3402937936759352
1.95,92.09006182019802,1.3372163129175942
1.955,92.20285688690393,1.333263523907651
1.96,92.31740690842199,1.328553133502432
1.965,92.43295776801108,1.32373448968264
1.97,92.55086119277723,1.3176533694081152
1.975,92.67038150580811,1.3114119579152164
1.98,92.79112473442031,1.3055156452014518
1.985,92.91231610908338,1.3003196652245554
1.99,93.03440670456685,1.2957600505107454
1.995,93.1565764955021,1.2920852621803187
2.0,93.27935404199236,1.289069181023328
2.005,93.4013241183248,1.2871537488731095
2.01,93.5232751930943,1.2862736207388368
2.015,93.64490737049357,1.285824191669096
2.02,93.76705795148068,1.2852223941198875
2.025,93.88974001449456,1.2841547384991485
2.03,94.01289376203131,1.2822211922580107
2.035,94.13644080046933,1.2795267945819593
2.04,94.25991075448869,1.2760654440870443
2.045,94.38451882488664,1.2706410634215708
2.05,94.50917664499582,1.2643233690683577
2.055,94.63489286053864,1.2562918442410687
2.06,94.76176064236833,1.2462719534009592
2.065,94.88999681079797,1.2339726208951267
2.07,95.01981996647532,1.2191248604249012
2.075,95.15144514258351,1.2014818015787214
2.08,95.2857377743532,1.18039805796052
2.085,95.42172289972409,1.156483666128316
2.09,95.56060100115333,1.1288117027995888
2.095,95.70106147590928,1.0986666469885857
2.1,95.84488305963711,1.0640997129017442
2.105,95.99068100976055,1.0265973545923832
2.11,96.13942268680874,0.9846857197875187
2.115,96.29040092187634,0.9392075007565109
2.12,96.44444890710814,0.8905050506670421
2.125,96.60088528845316,0.8386326649957936
2.13,96.7599502842628,0.7830649120682085
2.135,96.92098199732537,0.7249860701465353
2.14,97.08399073591514,0.664235714147533
2.145,97.24895881899744,0.6009775675983485
2.15,97.41496140342743,0.5362565051280787
2.155,97.58178219891543,0.46991730623342776
2.16,97.74909578925724,0.40212384298397835
2.165,97.91571147704177,0.3336057669460173
2.17,98.08159746992949,0.2642703096989688
2.175,98.24798212416854,0.19343703265985268
2.18,98.41303702008916,0.12275993025662861
2.185,98.57708915943546,0.05275935176108079
2.19,98.7397939160551,-0.01687379906906126
2.195,98.90043678678829,-0.08529177732451307
2.2,99.05774895467431,-0.15152943724885887
2.205,99.21202301977205,-0.21623364717433727
2.21,99.36194217082868,-0.27822194158644054
2.215,99.50820288568066,-0.3379139304423592
2.22,99.65036456997701,-0.39501629339508626
2.225,99.78775621871199,-0.4486208100998804
2.23,99.91946880789862,-0.4985733574735458
2.235,100.04589776891696,-0.5454247033703943
2.24,100.1671305578816,-0.5895032300867403
2.245,100.28329013340993,-0.6310669208158614
2.25,100.39448465650219,-0.6703821207750896
2.255,100.50086700491326,-0.7077320417699018
2.26,100.60336398106219,-0.743798552019284
2.265,100.70224145280562,-0.7793836319531436
2.27,100.79747433010746,-0.8143266571179257
2.275,100.88920019252791,-0.8488034946000877
2.28,100.97689069287898,-0.8827242371084113
2.285,101.06144910869816,-0.916280530954251
2.29,101.14312607306879,-0.9498883216856372
2.295,101.22248546512752,-0.9834602615710246
