Time (s),Elbow Flexion Angle Z (deg) (Smoothed),Shoulder Angle Z (deg) (Smoothed)
0.005,87.45723035689998,3.3806467243107505
0.01,87.4583148537079,3.385223871545068
0.015,87.4596290030464,3.3893651179683593
0.02,87.46116106863865,3.39307904540826
0.025,87.4628993142078,3.396374235692405
0.03,87.46483200347703,3.3992592706484293
0.035,87.4669474001695,3.4017427321039677
0.04,87.46923376800837,3.403833201886656
0.045,87.4716793707168,3.405539261824129
0.05,87.47427247201796,3.4068694937440216
0.055,87.477001335635,3.4078324794739694
0.06,87.4798542252911,3.408436800841607
0.065,87.48281940470943,3.408691039674569
0.07,87.48588513761314,3.4086037778004923
0.075,87.4890396877254,3.4081835970470102
0.08,87.49227131876937,3.4074390792417586
0.085,87.49556829446821,3.4063788062123725
0.09,87.49891887854508,3.4050113597864873
0.095,87.50231133472317,3.4033453217917375
0.1,87.50573392672563,3.4013892740557585
0.105,87.5091749182756,3.3991517984061854
0.11,87.51262257309628,3.3966414766706534
0.115,87.51606515491082,3.3938668906767977
0.12,87.51949092744238,3.390836622252253
0.125,87.52288815441412,3.3875592532246546
0.13,87.52624509954758,3.384043365421575
0.135,87.52933109923048,3.3804774185145106
0.14,87.53238094860417,3.376338165303792
0.145,87.53527844118611,3.3719459663864897
0.15,87.53810737049368,3.3669888294184953
0.155,87.5408660671799,3.3625342986250457
0.16,87.54353521483897,3.3576934476431433
0.165,87.54601921447659,3.352652232666587
0.17,87.54837540827486,3.34728308047741
0.175,87.5505022809107,3.3416905796280134
0.18,87.55246302294337,3.3358481422002124
0.185,87.55415015741978,3.329753780833024
0.19,87.55563267797518,3.3235108022831135
0.195,87.55745254931993,3.3170600652335764
0.2,87.55913997145859,3.310603016602804
0.205,87.56064662166587,3.303876015991239
0.21,87.56197711839285,3.297295422999325
0.215,87.56350860494973,3.2905050195926795
0.22,87.56488293052902,3.284023293619271
0.225,87.56612631996028,3.27748898661345
0.23,87.56755779519187,3.2711512482728313
0.235,87.5688977847726,3.264905897302255
0.24,87.57042004348742,3.2589332625879917
0.245,87.5718907902767,3.2532063885931106
0.25,87.57342830868028,3.247890409522237
0.255,87.5749184443572,3.2429799526602467
0.26,87.57625812589018,3.2387803325103004
0.265,87.57761768329806,3.2351064955038003
0.27,87.5789363609578,3.2319784973611467
0.275,87.58022578993693,3.229445991981636
0.28,87.5815246279627,3.227384141656601
0.285,87.58276970712645,3.22593456907285
0.29,87.58402929171501,3.2248965317447116
0.295,87.58521041926036,3.224463152959235
0.3,87.58638399510579,3.224364899771168
0.305,87.58735261727165,3.224806488935135
0.31,87.58850226279023,3.225179164193918
0.315,87.58939537928211,3.2261259339961783
0.32,87.59011132301809,3.2274040718928463
0.325,87.59058239144548,3.2291902631995573
0.33,87.59097560759987,3.231130884504683
0.335,87.59111093569337,3.2335234888671827
0.34,87.59103038573753,3.2361365111326927
0.345,87.59070537950862,3.2391072096762614
0.35,87.59025185168238,3.242135875331202
0.355,87.58955632516991,3.245432210695537
0.36,87.588715334434,3.248545551428056
0.365,87.58761753380429,3.2520260766947664
0.37,87.58643434732215,3.255192565176952
0.375,87.58506829146586,3.2584361845114773
0.38,87.58366572062619,3.26129247683973
0.385,87.58213281161353,3.264325164103315
0.39,87.58058141973603,3.2668891836734066
0.395,87.5789107952598,3.269325799451793
0.4,87.57723694081238,3.2712826195383187
0.405,87.57565432738967,3.2730071077486973
0.41,87.57403814808772,3.274268626695899
0.415,87.57232782169302,3.275275230469483
0.42,87.57086402183347,3.2755768846405857
0.425,87.56928742213698,3.275630613603869
0.43,87.56770014949207,3.275352138440219
0.435,87.56622342068735,3.274507868354826
0.44,87.5647443928498,3.273482242859345
0.445,87.56319740197797,3.2722130988243725
0.45,87.56192105596787,3.270485646786954
0.455,87.56056572742136,3.268613920813545
0.46,87.55917748533207,3.2669560957212442
0.465,87.55774945751719,3.2651903463271474
0.47,87.55665488006355,3.2632552818862766
0.475,87.55547287141103,3.26138009988895
0.48,87.55416524722929,3.260035975220215
0.485,87.55279970554089,3.258811729823943
0.49,87.55189298964702,3.2574423157941794
0.495,87.55083243108398,3.256395038166147
0.5,87.5495351672728,3.256010701035068
0.505,87.54848270855345,3.2555530829689747
0.51,87.5471343292017,3.255783811184789
0.515,87.54582877528202,3.2561652451923546
0.52,87.54472685677875,3.256635729008523
0.525,87.54346353031609,3.2574498405399273
0.53,87.54194664658148,3.2587482060748205
0.535,87.54022041042664,3.2603740351989225
0.54,87.53846681917882,3.2622348114339452
0.545,87.53643986726598,3.2644068262021166
0.55,87.53417241839963,3.2669743722393996
0.555,87.53162759971745,3.2697790128881112
0.56,87.52901305352162,3.272905807832504
0.565,87.52588229857814,3.2766144721284114
0.57,87.52256114521111,3.2807498452965462
0.575,87.51906736732259,3.284968323404771
0.58,87.51545505447295,3.289511438537616
0.585,87.51158977553116,3.2941496167522986
0.59,87.50759943373407,3.2990803565199034
0.595,87.50353330992606,3.303852729620087
0.6,87.49941540012063,3.3088025873745086
0.605,87.4951978595195,3.313545189698458
0.61,87.49097351015709,3.318382513080641
0.615,87.48675570680933,3.3230617060408427
0.62,87.4826587669013,3.3275447844797656
0.625,87.47862053726983,3.331761999592226
0.63,87.47474260118976,3.335889521166893
0.635,87.4709618360535,3.339681754286556
0.64,87.46739506217415,3.3430959820153836
0.645,87.46395321751176,3.346066546241074
0.65,87.46080057758785,3.348794237015497
0.655,87.45780141792397,3.3510074914493457
0.66,87.45492797571693,3.352970571020797
0.665,87.45219366463398,3.3543547960315556
0.67,87.4497983850127,3.35541247253612
0.675,87.4472641260261,3.356145894584184
0.68,87.4450325284814,3.356559622641445
0.685,87.4429328025533,3.356313455797349
0.69,87.44092063693235,3.3560201315997458
0.695,87.43902819089732,3.355068858184719
0.7,87.43741319848527,3.3537110034201714
0.705,87.43564311762275,3.3521596758702836
0.71,87.4341010328643,3.350228157376094
0.715,87.43269344718853,3.3476527375477856
0.72,87.43151396180947,3.344661220412629
0.725,87.43005797866148,3.341632874583732
0.73,87.42875473963001,3.338292204353375
0.735,87.42759908038518,3.334380783936152
0.74,87.42661558585529,3.3301583261228385
0.745,87.42513136197707,3.3261940154929257
0.75,87.42369879725307,3.3220741276132455
0.755,87.4223981381215,3.3175201766743796
0.76,87.42069686289442,3.3133458687625357
0.765,87.41910950870746,3.3088378511403924
0.77,87.41747547849161,3.304290446669171
0.775,87.41545134204458,3.299912972207688
0.78,87.41326518154264,3.2955906401050354
0.785,87.41119614940149,3.2910180590726226
0.79,87.40892908106471,3.2865017511154777
0.795,87.40662304468788,3.2819515255158036
0.8,87.40403236313226,3.2774980846677666
0.805,87.40168593399457,3.2728286790187147
0.81,87.3989925275754,3.268264333733431
0.815,87.39661448277256,3.263557242519587
0.82,87.39380244172973,3.2589778010826347
0.825,87.39156085301879,3.2541873623411
0.83,87.38878691929435,3.249534190581831
0.835,87.3861536886436,3.244454283449166
0.84,87.38336798568315,3.2395947403111567
0.845,87.3807749575285,3.2345368497587095
0.85,87.3782707422575,3.229679594554741
0.855,87.3760511721653,3.2247431239665056
0.86,87.37414907019243,3.2200109443021874
0.865,87.37272850121013,3.215229094430163
0.87,87.37191222904089,3.2106423805748094
0.875,87.37184088427657,3.206016177263296
0.88,87.37273080477307,3.2015551362431154
0.885,87.37471209087239,3.1970191671384915
0.89,87.37807230061668,3.1926034372238847
0.895,87.38289992298638,3.1880698876531133
0.9,87.3895220978941,3.183624088201258
0.905,87.3979793698595,3.1790275449046934
0.91,87.40857485333588,3.1745345801716307
0.915,87.42125571586956,3.169916998572954
0.92,87.43627673559823,3.165489990939712
0.925,87.45348034156893,3.1610346458582828
0.93,87.47303841989458,3.1569259711431132
0.935,87.4947061586882,3.152953956374942
0.94,87.51856036376647,3.149532519875814
0.945,87.54429332261039,3.146471210899394
0.95,87.57189392964567,3.1441843244466994
0.955,87.60102105823294,3.142507777299539
0.96,87.63158946974848,3.141818737457186
0.965,87.66325483702748,3.1419595931957085
0.97,87.69589040748207,3.1432510620851506
0.975,87.72919180502223,3.145500028086646
0.98,87.76299537022187,3.1489674760469626
0.985,87.79705794921573,3.1533889413123135
0.99,87.8312046592205,3.158968241862722
0.995,87.86525642936252,3.1653509719358834
1.0,87.89904442229552,3.1726779202246327
1.005,87.93247660875502,3.180506580669943
1.01,87.96537544904587,3.1889210156514824
1.015,87.9977451924149,3.1974153011392628
1.02,88.02936502751875,3.2060397275135855
1.025,88.06032860993285,3.214266030487605
1.03,88.09033041291818,3.2221432983758924
1.035,88.11954309723721,3.2291734655370954
1.04,88.14754618224478,3.2354245627306906
1.045,88.17460563319499,3.2404659849599593
1.05,88.20015878502174,3.2443953403247465
1.055,88.22458120908573,3.246867014654856
1.06,88.24715116990023,3.2480111671837926
1.065,88.26839802486863,3.247562743663441
1.07,88.28741271149799,3.2456895737162172
1.075,88.30494210287719,3.242204197603508
1.08,88.31986700491348,3.237307624181686
1.085,88.33323402115394,3.230881404108751
1.09,88.34441862329668,3.223464653785981
1.095,88.35379197037138,3.214725699789288
1.1,88.36114128292657,3.205000801830105
1.105,88.36670641916974,3.1942389322520848
1.11,88.37047964846145,3.1826532476386165
1.115,88.37266585199947,3.170297958957107
1.12,88.3733548868587,3.157339320029838
1.125,88.37272563591306,3.14387388276059
1.13,88.37089605879919,3.1300459666130003
1.135,88.36801208860734,3.1159667290311757
1.14,88.36418091236325,3.1017653946861166
1.145,88.35949652313586,3.087554909963927
1.15,88.3540286846797,3.073456555527813
1.155,88.3478217015091,3.0595857931096377
1.16,88.3408861265244,3.046057280346043
1.165,88.33322471856498,3.0329798865205877
1.17,88.32482086117297,3.0204557444109144
1.175,88.31565699336169,3.008579897166356
1.18,88.30571503997656,2.9974370348138684
1.185,88.29498130648317,2.9871046909329197
1.19,88.28345794695068,2.9776494631814416
1.195,88.27116335817176,2.9691255285509857
1.2,88.25814185598601,2.961572268454495
1.205,88.24445905909364,2.955010966952762
1.21,88.23021718725056,2.949436882375535
1.215,88.21555284830745,2.944814499988618
1.22,88.20063706992062,2.941073257831378
1.225,88.1857797050879,2.937743020453408
1.23,88.17076533783157,2.934940502163074
1.235,88.15490405898039,2.9336784228407784
1.24,88.14101930960895,2.9318518004937264
1.245,88.12746119504236,2.9304191363337226
1.25,88.11535958005675,2.9289243280707944
1.255,88.10534094090296,2.926735063534791
1.26,88.09777592470782,2.92354468255221
1.265,88.09306802192407,2.9190007141724057
1.27,88.09242808896974,2.9120269738838376
1.275,88.09514495458393,2.9034749502819435
1.28,88.10137886022164,2.892980565584669
1.285,88.11118105279678,2.8803016802192025
1.29,88.1245346395145,2.865274409839352
1.295,88.141383804841,2.8477834456046023
1.3,88.16161789621339,2.8277522503340418
1.305,88.18509788670018,2.805137175020898
1.31,88.21164538947485,2.7799243287503144
1.315,88.24106057441674,2.752127154861892
1.32,88.27312301524215,2.7217817936985593
1.325,88.30759848694026,2.688942970395654
1.33,88.34423877097838,2.6536825271240065
1.335,88.38278798840123,2.6160876712948826
1.34,88.42221004326088,2.5768483865998735
1.345,88.46369795238681,2.5349492590998177
1.35,88.50574015945833,2.4914609193865744
1.355,88.54933639266858,2.445646165711521
1.36,88.5930811456641,2.398420435343903
1.365,88.63780823574542,2.3492529912341844
1.37,88.68221031280267,2.2989235117442766
1.375,88.72700266597035,2.24707416793128
1.38,88.77094406441653,2.1944167322022725
1.385,88.81469131803495,2.140705164782853
1.39,88.85702903349849,2.086636827561173
1.395,88.89860381208918,2.0320095254705266
1.4,88.93818752859464,1.9775624256494673
1.405,88.9764755464433,1.9230669775079474
1.41,89.0121691929585,1.869355266710422
1.415,89.04606772067146,1.816100130920258
1.42,89.07762837210186,1.763515787220515
1.425,89.10623189200037,1.7125092543432137
1.43,89.13165883032286,1.6632512754535458
1.435,89.15369419012717,1.6159539593195462
1.44,89.17216158463214,1.5708103525787371
1.445,89.18691909895864,1.5279717175926681
1.45,89.19787493034778,1.4875355880314103
1.455,89.20498158508516,1.4495395895036984
1.46,89.20825049944335,1.413962349951274
1.465,89.2077308115682,1.3807294939862471
1.47,89.2035235633859,1.3497192192574887
1.475,89.19576915445252,1.320768350879949
1.48,89.18450840788974,1.2941179976443162
1.485,89.1704421957445,1.2693918297356437
1.49,89.15512703571822,1.2449612213186925
1.495,89.13638011732824,1.2223721037169353
1.5,89.11642649663469,1.2002003467122468
1.505,89.09497351695225,1.1782068387958728
1.51,89.07242697682675,1.1558602157013527
1.515,89.04831212258317,1.1339879366916363
1.52,89.02320958571937,1.1115904197150344
1.525,88.99589644385885,1.0898472316247045
1.53,88.96706179301738,1.0677964759337493
1.535,88.93666039774229,1.0454663800991895
1.54,88.90471481800097,1.022804279666564
1.545,88.87127559174442,0.9997168760334132
1.55,88.83640242134419,0.976100760742014
1.555,88.80016587465005,0.9518558409703323
1.56,88.76263326235984,0.9268916637975768
1.565,88.72322082266699,0.9016243398717805
1.57,88.682884441322,0.8755578108450759
1.575,88.64158255905966,0.8485554180162468
1.58,88.59941421323077,0.820483205993325
1.585,88.55640424018493,0.7913416991143476
1.59,88.51261720084091,0.7611343514281038
1.595,88.4690351332969,0.7291979656639874
1.6,88.42429990713097,0.6967023012752137
1.605,88.37970841694997,0.6628150042560292
1.61,88.33402787831945,0.6285427944981645
1.615,88.2883854945735,0.5933094664753334
1.62,88.24170632403737,0.5580065366714881
1.625,88.19486119504236,0.522379820957656
1.63,88.14671587125247,0.4872251945692901
1.635,88.09844388774209,0.4520407156608217
1.64,88.04859521166789,0.4178844475949545
1.645,87.99838496228512,0.3842307160039792
1.65,87.9463278126328,0.3520965243165123
1.655,87.89381429024272,0.32077362998934805
1.66,87.83936589730064,0.2912195532193199
1.665,87.78407997009957,0.26289725601412894
1.67,87.72685542820734,0.2365379574600286
1.675,87.66784268499684,0.21238996389471612
1.68,87.60738146730223,0.18991143137268884
1.685,87.5455283132104,0.16913142770114517
1.69,87.48237878773983,0.15001110759955774
1.695,87.41804666017183,0.1324688971455274
1.7,87.35266385874937,0.116404417882011
1.705,87.28637074678761,0.10170455200792577
1.71,87.21930903984067,0.08825514619703564
1.715,87.15161998233089,0.07594722355065658
1.72,87.0834451199331,0.0646789719869747
1.725,87.01492436295106,0.05436049653441652
1.73,86.94619076309603,0.044910337739766756
1.735,86.87739474733121,0.03625557495023603
1.74,86.80868391129871,0.02833137574379889
1.745,86.7402085188776,0.021082134754535395
1.75,86.67212058710112,0.014465029682959723
1.755,86.60455916555136,0.008450858137171708
1.76,86.53764858094016,0.0030210828207433565
1.765,86.47103051258073,-0.0011665329036217825
1.77,86.40420946340636,-0.004283523385059582
1.775,86.33734466918679,-0.006061754280549817
1.78,86.27186030714007,-0.007703845464381809
1.785,86.20801327096709,-0.009414456995673543
1.79,86.14543375840738,-0.010646855837436648
1.795,86.08412870280023,-0.011426734610115511
1.8,86.0240097035024,-0.011718177521732988
1.805,85.9650232304226,-0.011539852191034674
1.81,85.9062152868678,-0.010266097903168597
1.815,85.84858242768641,-0.008549228003850422
1.82,85.79200557883365,-0.006492222737253252
1.825,85.73701213164347,-0.004880442738952077
1.83,85.68238494642975,-0.002707807062606111
1.835,85.62858200412076,-0.00038962308550588185
1.84,85.5756547169795,0.002028678129357373
1.845,85.52357080794417,0.004592460864300353
1.85,85.4722946657892,0.007334287607714648
1.855,85.42175024575705,0.010298318236381153
1.86,85.37278248204778,0.012677784635506794
1.865,85.32448384787715,0.015555277860381592
1.87,85.27664506783682,0.018898901275294665
1.875,85.22904269405711,0.022709499532446505
1.88,85.18164069854195,0.026853685912092626
1.885,85.13444754127902,0.0312681640038953
1.89,85.08648621033156,0.036326452900925704
1.895,85.03925279168108,0.04110058340116346
1.9,84.992050601371,0.04606502532974611
1.905,84.9452538857036,0.050971288267411645
1.91,84.89833269609566,0.05621943119601695
1.915,84.85171280663047,0.06149180085342698
1.92,84.80536217581209,0.06682503994405181
1.925,84.75936590636091,0.07214254974223513
1.93,84.71377795872903,0.07742026238374447
1.935,84.66867704138096,0.08260455624408096
1.94,84.62327506398623,0.08839287204738329
1.945,84.5782244354329,0.0941868505338721
1.95,84.53385953249062,0.09963890154295489
1.955,84.49040996851409,0.10460528785068543
1.96,84.44804216856393,0.10901463403519689
1.965,84.40689593875125,0.11282899313506317
1.97,84.36769845296448,0.115625333607101
1.975,84.32958937914626,0.11809768391401616
1.98,84.29281873654962,0.12011696694420936
1.985,84.25820159686354,0.12117767160796163
1.99,84.22490523907514,0.12194546705746215
1.995,84.1938028403798,0.12191344335364102
2.0,84.16409730005049,0.12170299530272252
2.005,84.13671189381249,0.12076642986975691
2.01,84.11077450225211,0.11979822160456408
2.015,84.08722836757184,0.11823897151962445
2.02,84.06513163378398,0.11683420518290112
2.025,84.04662800969284,0.11382810803755244
2.03,84.03161688146797,0.11016321940247586
2.035,84.01853234048176,0.10671578583886182
2.04,84.00735668531402,0.1041057991687221
2.045,83.99789369181474,0.1018255431108273
2.05,83.99022886588436,0.09993856529932538
2.055,83.98431413848397,0.0986044609617413
2.06,83.98007497791409,0.09797498865885791
2.065,83.97844121950506,0.09750258027135199
2.07,83.97847389068674,0.09774143384221427
2.075,83.98107542413031,0.09815062161090665
2.08,83.98483545267003,0.09987576498901259
2.085,83.99090795940856,0.10203498508459795
2.09,83.9987820086509,0.10511359635552135
2.095,84.00830632177238,0.10922675241794624
2.1,84.01936817368295,0.11442910864345524
2.105,84.03187193367752,0.12076678795668981
2.11,84.04575725384332,0.12828354711318246
2.115,84.05985876463632,0.13805309124781728
2.12,84.074724437698,0.1492505907834804
2.125,84.0903855512,0.1619729142336149
2.13,84.10687877188451,0.17629084519467828
2.135,84.12426395388182,0.19226993448322358
2.14,84.14260979410471,0.20997860561960235
2.145,84.16271199800514,0.2293112096196926
2.15,84.18357663820085,0.250912924403719
2.155,84.20555337606578,0.2746154594328245
2.16,84.22871824729732,0.30042861125959247
2.165,84.25345092527415,0.32848506202857874
2.17,84.27937347165118,0.35847357094157734
2.175,84.30692472536023,0.39057115729687353
2.18,84.33604600557041,0.4245599303381648
2.185,84.36676385421931,0.46027793509478376
2.19,84.39912691340524,0.4975407585788938
2.195,84.43425263992228,0.5352359650456306
2.2,84.47193516274271,0.5734350754648918
2.205,84.51217327232617,0.61208129768057
2.21,84.55500632630248,0.6509712825726393
2.215,84.60049966476996,0.6898588824888314
2.22,84.64871453486893,0.7284824606899224
2.225,84.69867917959475,0.7669395832748045
2.23,84.75178898502635,0.8045768313664934
2.235,84.80763887064097,0.8409557229155652
2.24,84.86593387392529,0.8766593392149145
2.245,84.92707857029441,0.9106936638428784
2.25,84.99053899068899,0.9433341887245281
2.255,85.05720133638198,0.9739370202948916
2.26,85.12623624090982,1.002984397472177
2.265,85.19859117307138,1.0297276018029655
2.27,85.2733607646816,1.0547024402138012
2.275,85.351424994902,1.0772555801716708
2.28,85.43220060250353,1.0980810793449243
2.285,85.51549021495227,1.1166649954698646
2.29,85.60164207796161,1.133144290357631
2.295,85.69024913361407,1.1472875108382754
2.3,85.7817011189365,1.1592292212280917
